'Elapsed time','Abdomen_2'
'0:00.000',13.400
'0:00.001',12.700
'0:00.002',12.100
'0:00.003',11.500
'0:00.004',10.500
'0:00.005',8.700
'0:00.006',6.100
'0:00.007',2.900
'0:00.008',-0.300
'0:00.009',-3.200
'0:00.010',-5.300
'0:00.011',-6.400
'0:00.012',-6.700
'0:00.013',-6.200
'0:00.014',-5.500
'0:00.015',-4.700
'0:00.016',-4.200
'0:00.017',-4.000
'0:00.018',-3.800
'0:00.019',-3.600
'0:00.020',-3.300
'0:00.021',-3.000
'0:00.022',-3.100
'0:00.023',-3.800
'0:00.024',-5.000
'0:00.025',-6.400
'0:00.026',-7.700
'0:00.027',-8.400
'0:00.028',-8.800
'0:00.029',-8.800
'0:00.030',-8.600
'0:00.031',-8.500
'0:00.032',-8.400
'0:00.033',-8.300
'0:00.034',-8.300
'0:00.035',-8.600
'0:00.036',-9.600
'0:00.037',-11.400
'0:00.038',-13.600
'0:00.039',-15.800
'0:00.040',-17.400
'0:00.041',-18.000
'0:00.042',-17.800
'0:00.043',-17.000
'0:00.044',-16.200
'0:00.045',-15.800
'0:00.046',-15.700
'0:00.047',-15.700
'0:00.048',-15.700
'0:00.049',-15.500
'0:00.050',-15.100
'0:00.051',-14.600
'0:00.052',-14.200
'0:00.053',-13.700
'0:00.054',-12.900
'0:00.055',-11.800
'0:00.056',-10.400
'0:00.057',-9.100
'0:00.058',-8.300
'0:00.059',-8.200
'0:00.060',-8.700
'0:00.061',-9.400
'0:00.062',-9.800
'0:00.063',-9.600
'0:00.064',-8.800
'0:00.065',-8.000
'0:00.066',-7.500
'0:00.067',-7.600
'0:00.068',-8.200
'0:00.069',-8.700
'0:00.070',-8.700
'0:00.071',-8.000
'0:00.072',-6.800
'0:00.073',-5.500
'0:00.074',-4.400
'0:00.075',-3.800
'0:00.076',-3.400
'0:00.077',-3.200
'0:00.078',-2.900
'0:00.079',-2.800
'0:00.080',-3.000
'0:00.081',-3.700
'0:00.082',-4.600
'0:00.083',-5.500
'0:00.084',-5.800
'0:00.085',-5.600
'0:00.086',-4.900
'0:00.087',-4.200
'0:00.088',-3.700
'0:00.089',-3.500
'0:00.090',-3.500
'0:00.091',-3.600
'0:00.092',-3.800
'0:00.093',-4.100
'0:00.094',-4.500
'0:00.095',-5.000
'0:00.096',-5.200
'0:00.097',-4.800
'0:00.098',-3.900
'0:00.099',-2.800
'0:00.100',-2.100
'0:00.101',-2.100
'0:00.102',-2.900
'0:00.103',-4.000
'0:00.104',-5.000
'0:00.105',-5.400
'0:00.106',-5.400
'0:00.107',-5.200
'0:00.108',-5.400
'0:00.109',-6.100
'0:00.110',-7.000
'0:00.111',-7.900
'0:00.112',-8.400
'0:00.113',-8.300
'0:00.114',-7.700
'0:00.115',-6.900
'0:00.116',-6.000
'0:00.117',-5.300
'0:00.118',-4.700
'0:00.119',-4.200
'0:00.120',-3.700
'0:00.121',-3.100
'0:00.122',-2.400
'0:00.123',-1.600
'0:00.124',-0.700
'0:00.125',0.100
'0:00.126',0.600
'0:00.127',0.400
'0:00.128',-0.300
'0:00.129',-1.200
'0:00.130',-2.000
'0:00.131',-2.300
'0:00.132',-2.100
'0:00.133',-1.700
'0:00.134',-1.500
'0:00.135',-1.800
'0:00.136',-2.700
'0:00.137',-4.000
'0:00.138',-5.200
'0:00.139',-6.200
'0:00.140',-6.900
'0:00.141',-7.300
'0:00.142',-7.600
'0:00.143',-7.900
'0:00.144',-8.100
'0:00.145',-8.300
'0:00.146',-8.400
'0:00.147',-8.400
'0:00.148',-8.400
'0:00.149',-8.300
'0:00.150',-8.200
'0:00.151',-7.900
'0:00.152',-7.500
'0:00.153',-7.300
'0:00.154',-7.200
'0:00.155',-7.300
'0:00.156',-7.600
'0:00.157',-7.800
'0:00.158',-7.900
'0:00.159',-8.000
'0:00.160',-8.300
'0:00.161',-9.100
'0:00.162',-10.400
'0:00.163',-12.000
'0:00.164',-13.300
'0:00.165',-13.900
'0:00.166',-13.400
'0:00.167',-12.200
'0:00.168',-10.600
'0:00.169',-9.000
'0:00.170',-7.700
'0:00.171',-6.500
'0:00.172',-5.000
'0:00.173',-3.000
'0:00.174',-0.200
'0:00.175',3.200
'0:00.176',6.900
'0:00.177',10.600
'0:00.178',13.800
'0:00.179',16.100
'0:00.180',17.200
'0:00.181',16.700
'0:00.182',15.000
'0:00.183',12.300
'0:00.184',9.500
'0:00.185',6.800
'0:00.186',4.500
'0:00.187',2.000
'0:00.188',-1.200
'0:00.189',-5.400
'0:00.190',-10.500
'0:00.191',-15.400
'0:00.192',-19.200
'0:00.193',-21.100
'0:00.194',-21.000
'0:00.195',-19.300
'0:00.196',-17.000
'0:00.197',-14.900
'0:00.198',-13.500
'0:00.199',-12.600
'0:00.200',-12.000
'0:00.201',-11.100
'0:00.202',-10.000
'0:00.203',-8.600
'0:00.204',-7.300
'0:00.205',-6.400
'0:00.206',-5.900
'0:00.207',-5.700
'0:00.208',-5.400
'0:00.209',-4.800
'0:00.210',-3.800
'0:00.211',-2.600
'0:00.212',-1.900
'0:00.213',-1.800
'0:00.214',-2.500
'0:00.215',-3.700
'0:00.216',-4.800
'0:00.217',-5.400
'0:00.218',-5.400
'0:00.219',-4.900
'0:00.220',-4.300
'0:00.221',-4.200
'0:00.222',-4.400
'0:00.223',-4.700
'0:00.224',-4.700
'0:00.225',-4.200
'0:00.226',-3.100
'0:00.227',-1.800
'0:00.228',-0.600
'0:00.229',0.300
'0:00.230',0.800
'0:00.231',0.900
'0:00.232',0.700
'0:00.233',0.400
'0:00.234',0.000
'0:00.235',-0.600
'0:00.236',-1.200
'0:00.237',-1.800
'0:00.238',-2.600
'0:00.239',-3.400
'0:00.240',-4.100
'0:00.241',-4.700
'0:00.242',-5.000
'0:00.243',-5.100
'0:00.244',-5.000
'0:00.245',-4.800
'0:00.246',-4.500
'0:00.247',-4.200
'0:00.248',-3.800
'0:00.249',-3.500
'0:00.250',-3.100
'0:00.251',-3.000
'0:00.252',-3.000
'0:00.253',-2.900
'0:00.254',-2.700
'0:00.255',-2.300
'0:00.256',-1.700
'0:00.257',-1.200
'0:00.258',-1.100
'0:00.259',-1.400
'0:00.260',-2.000
'0:00.261',-2.300
'0:00.262',-2.100
'0:00.263',-1.300
'0:00.264',-0.200
'0:00.265',1.000
'0:00.266',1.700
'0:00.267',1.900
'0:00.268',1.600
'0:00.269',1.200
'0:00.270',0.800
'0:00.271',0.600
'0:00.272',0.400
'0:00.273',0.200
'0:00.274',-0.200
'0:00.275',-0.700
'0:00.276',-1.000
'0:00.277',-0.900
'0:00.278',-0.400
'0:00.279',0.400
'0:00.280',1.000
'0:00.281',1.100
'0:00.282',0.600
'0:00.283',-0.300
'0:00.284',-1.200
'0:00.285',-1.800
'0:00.286',-1.900
'0:00.287',-1.700
'0:00.288',-1.400
'0:00.289',-1.500
'0:00.290',-1.900
'0:00.291',-2.300
'0:00.292',-2.500
'0:00.293',-2.600
'0:00.294',-2.500
'0:00.295',-2.700
'0:00.296',-3.100
'0:00.297',-3.700
'0:00.298',-4.200
'0:00.299',-4.400
'0:00.300',-4.300
'0:00.301',-3.900
'0:00.302',-3.600
'0:00.303',-3.500
'0:00.304',-3.400
'0:00.305',-3.300
'0:00.306',-3.000
'0:00.307',-2.500
'0:00.308',-2.100
'0:00.309',-2.100
'0:00.310',-2.400
'0:00.311',-3.000
'0:00.312',-3.600
'0:00.313',-3.600
'0:00.314',-3.000
'0:00.315',-1.900
'0:00.316',-0.900
'0:00.317',-0.300
'0:00.318',-0.300
'0:00.319',-0.900
'0:00.320',-1.600
'0:00.321',-2.000
'0:00.322',-2.000
'0:00.323',-1.600
'0:00.324',-1.100
'0:00.325',-0.700
'0:00.326',-0.600
'0:00.327',-0.600
'0:00.328',-0.600
'0:00.329',-0.600
'0:00.330',-0.500
'0:00.331',-0.400
'0:00.332',-0.300
'0:00.333',0.100
'0:00.334',0.600
'0:00.335',1.500
'0:00.336',2.400
'0:00.337',3.200
'0:00.338',3.700
'0:00.339',3.800
'0:00.340',3.500
'0:00.341',2.800
'0:00.342',1.600
'0:00.343',-0.300
'0:00.344',-2.700
'0:00.345',-5.200
'0:00.346',-7.300
'0:00.347',-8.400
'0:00.348',-8.400
'0:00.349',-7.500
'0:00.350',-6.400
'0:00.351',-5.900
'0:00.352',-6.300
'0:00.353',-7.500
'0:00.354',-9.100
'0:00.355',-10.700
'0:00.356',-11.800
'0:00.357',-12.500
'0:00.358',-12.800
'0:00.359',-13.000
'0:00.360',-12.900
'0:00.361',-12.800
'0:00.362',-12.400
'0:00.363',-11.800
'0:00.364',-11.100
'0:00.365',-10.500
'0:00.366',-9.900
'0:00.367',-9.400
'0:00.368',-8.800
'0:00.369',-8.200
'0:00.370',-7.800
'0:00.371',-7.900
'0:00.372',-8.400
'0:00.373',-9.400
'0:00.374',-10.400
'0:00.375',-11.300
'0:00.376',-11.700
'0:00.377',-11.700
'0:00.378',-11.400
'0:00.379',-10.800
'0:00.380',-9.800
'0:00.381',-8.600
'0:00.382',-7.100
'0:00.383',-5.700
'0:00.384',-4.900
'0:00.385',-5.000
'0:00.386',-5.800
'0:00.387',-7.000
'0:00.388',-8.100
'0:00.389',-8.700
'0:00.390',-8.800
'0:00.391',-8.500
'0:00.392',-8.200
'0:00.393',-7.700
'0:00.394',-7.000
'0:00.395',-6.200
'0:00.396',-5.200
'0:00.397',-4.400
'0:00.398',-4.000
'0:00.399',-4.100
'0:00.400',-4.400
'0:00.401',-4.400
'0:00.402',-4.100
'0:00.403',-3.500
'0:00.404',-2.900
'0:00.405',-2.700
'0:00.406',-3.400
'0:00.407',-4.700
'0:00.408',-6.600
'0:00.409',-8.400
'0:00.410',-9.600
'0:00.411',-10.000
'0:00.412',-9.700
'0:00.413',-9.000
'0:00.414',-8.400
'0:00.415',-8.300
'0:00.416',-9.000
'0:00.417',-10.000
'0:00.418',-10.900
'0:00.419',-11.300
'0:00.420',-10.800
'0:00.421',-9.600
'0:00.422',-8.200
'0:00.423',-7.400
'0:00.424',-7.500
'0:00.425',-8.500
'0:00.426',-10.000
'0:00.427',-11.300
'0:00.428',-11.700
'0:00.429',-11.000
'0:00.430',-9.700
'0:00.431',-8.100
'0:00.432',-7.100
'0:00.433',-6.800
'0:00.434',-7.100
'0:00.435',-7.400
'0:00.436',-7.500
'0:00.437',-7.000
'0:00.438',-6.100
'0:00.439',-5.100
'0:00.440',-4.400
'0:00.441',-4.100
'0:00.442',-4.300
'0:00.443',-4.600
'0:00.444',-4.900
'0:00.445',-4.900
'0:00.446',-4.500
'0:00.447',-3.800
'0:00.448',-3.000
'0:00.449',-2.500
'0:00.450',-2.200
'0:00.451',-2.400
'0:00.452',-2.700
'0:00.453',-3.000
'0:00.454',-3.000
'0:00.455',-2.700
'0:00.456',-2.400
'0:00.457',-2.200
'0:00.458',-2.300
'0:00.459',-2.700
'0:00.460',-2.800
'0:00.461',-2.400
'0:00.462',-1.200
'0:00.463',0.400
'0:00.464',1.800
'0:00.465',2.300
'0:00.466',1.700
'0:00.467',0.000
'0:00.468',-2.200
'0:00.469',-4.300
'0:00.470',-6.000
'0:00.471',-7.100
'0:00.472',-7.800
'0:00.473',-8.500
'0:00.474',-9.200
'0:00.475',-9.900
'0:00.476',-10.300
'0:00.477',-10.500
'0:00.478',-10.200
'0:00.479',-9.600
'0:00.480',-8.800
'0:00.481',-7.800
'0:00.482',-6.900
'0:00.483',-6.000
'0:00.484',-5.500
'0:00.485',-5.100
'0:00.486',-4.900
'0:00.487',-4.800
'0:00.488',-4.600
'0:00.489',-4.500
'0:00.490',-4.400
'0:00.491',-4.500
'0:00.492',-4.700
'0:00.493',-4.900
'0:00.494',-4.900
'0:00.495',-4.600
'0:00.496',-4.000
'0:00.497',-3.200
'0:00.498',-2.400
'0:00.499',-1.800
'0:00.500',-1.400
'0:00.501',-1.200
'0:00.502',-1.000
'0:00.503',-1.000
'0:00.504',-1.000
'0:00.505',-1.200
'0:00.506',-1.700
'0:00.507',-2.200
'0:00.508',-2.600
'0:00.509',-2.600
'0:00.510',-2.300
'0:00.511',-1.800
'0:00.512',-1.400
'0:00.513',-1.400
'0:00.514',-1.800
'0:00.515',-2.200
'0:00.516',-2.200
'0:00.517',-1.700
'0:00.518',-0.600
'0:00.519',0.600
'0:00.520',1.100
'0:00.521',0.800
'0:00.522',-0.600
'0:00.523',-2.300
'0:00.524',-3.700
'0:00.525',-4.200
'0:00.526',-3.900
'0:00.527',-3.000
'0:00.528',-2.400
'0:00.529',-2.500
'0:00.530',-3.300
'0:00.531',-4.400
'0:00.532',-5.200
'0:00.533',-5.500
'0:00.534',-5.300
'0:00.535',-5.100
'0:00.536',-5.500
'0:00.537',-6.300
'0:00.538',-7.400
'0:00.539',-7.900
'0:00.540',-7.400
'0:00.541',-5.800
'0:00.542',-3.600
'0:00.543',-1.300
'0:00.544',0.500
'0:00.545',1.400
'0:00.546',1.500
'0:00.547',1.200
'0:00.548',0.900
'0:00.549',1.000
'0:00.550',1.300
'0:00.551',1.700
'0:00.552',1.800
'0:00.553',1.500
'0:00.554',1.000
'0:00.555',0.400
'0:00.556',0.100
'0:00.557',0.100
'0:00.558',0.300
'0:00.559',0.200
'0:00.560',-0.400
'0:00.561',-1.400
'0:00.562',-2.800
'0:00.563',-4.200
'0:00.564',-5.400
'0:00.565',-6.600
'0:00.566',-7.600
'0:00.567',-8.400
'0:00.568',-9.000
'0:00.569',-9.000
'0:00.570',-8.600
'0:00.571',-8.000
'0:00.572',-7.400
'0:00.573',-7.100
'0:00.574',-7.400
'0:00.575',-8.100
'0:00.576',-9.000
'0:00.577',-9.900
'0:00.578',-10.500
'0:00.579',-10.800
'0:00.580',-10.700
'0:00.581',-10.100
'0:00.582',-9.300
'0:00.583',-8.500
'0:00.584',-8.000
'0:00.585',-7.900
'0:00.586',-8.100
'0:00.587',-8.200
'0:00.588',-8.200
'0:00.589',-7.900
'0:00.590',-7.400
'0:00.591',-7.000
'0:00.592',-6.900
'0:00.593',-6.900
'0:00.594',-7.000
'0:00.595',-6.900
'0:00.596',-6.600
'0:00.597',-6.200
'0:00.598',-5.800
'0:00.599',-5.600
'0:00.600',-5.400
'0:00.601',-5.200
'0:00.602',-5.100
'0:00.603',-5.100
'0:00.604',-5.300
'0:00.605',-5.800
'0:00.606',-6.400
'0:00.607',-6.800
'0:00.608',-6.800
'0:00.609',-6.400
'0:00.610',-6.100
'0:00.611',-6.000
'0:00.612',-6.500
'0:00.613',-7.200
'0:00.614',-7.700
'0:00.615',-7.800
'0:00.616',-7.300
'0:00.617',-6.600
'0:00.618',-6.100
'0:00.619',-6.100
'0:00.620',-6.200
'0:00.621',-6.300
'0:00.622',-6.100
'0:00.623',-5.500
'0:00.624',-4.800
'0:00.625',-4.100
'0:00.626',-3.600
'0:00.627',-3.300
'0:00.628',-3.100
'0:00.629',-3.100
'0:00.630',-3.700
'0:00.631',-4.900
'0:00.632',-6.600
'0:00.633',-8.400
'0:00.634',-9.500
'0:00.635',-9.600
'0:00.636',-8.600
'0:00.637',-6.800
'0:00.638',-5.000
'0:00.639',-3.600
'0:00.640',-2.500
'0:00.641',-1.500
'0:00.642',0.100
'0:00.643',2.900
'0:00.644',6.900
'0:00.645',11.700
'0:00.646',16.300
'0:00.647',19.600
'0:00.648',20.700
'0:00.649',19.700
'0:00.650',17.000
'0:00.651',13.600
'0:00.652',10.500
'0:00.653',8.100
'0:00.654',6.300
'0:00.655',4.600
'0:00.656',2.700
'0:00.657',0.400
'0:00.658',-2.100
'0:00.659',-4.400
'0:00.660',-6.300
'0:00.661',-7.500
'0:00.662',-8.000
'0:00.663',-7.800
'0:00.664',-6.800
'0:00.665',-5.200
'0:00.666',-3.100
'0:00.667',-1.000
'0:00.668',0.900
'0:00.669',2.300
'0:00.670',3.100
'0:00.671',3.500
'0:00.672',3.500
'0:00.673',3.100
'0:00.674',2.300
'0:00.675',1.300
'0:00.676',0.400
'0:00.677',0.100
'0:00.678',0.700
'0:00.679',2.200
'0:00.680',4.200
'0:00.681',6.000
'0:00.682',7.500
'0:00.683',8.600
'0:00.684',9.600
'0:00.685',10.700
'0:00.686',11.800
'0:00.687',12.800
'0:00.688',13.100
'0:00.689',12.700
'0:00.690',11.700
'0:00.691',10.600
'0:00.692',9.900
'0:00.693',9.700
'0:00.694',9.700
'0:00.695',9.600
'0:00.696',8.900
'0:00.697',7.700
'0:00.698',6.200
'0:00.699',4.500
'0:00.700',2.700
'0:00.701',0.600
'0:00.702',-2.200
'0:00.703',-5.500
'0:00.704',-9.100
'0:00.705',-12.300
'0:00.706',-14.600
'0:00.707',-15.600
'0:00.708',-15.600
'0:00.709',-14.900
'0:00.710',-14.200
'0:00.711',-14.000
'0:00.712',-14.400
'0:00.713',-15.300
'0:00.714',-16.400
'0:00.715',-17.200
'0:00.716',-17.600
'0:00.717',-17.700
'0:00.718',-17.500
'0:00.719',-17.300
'0:00.720',-17.200
'0:00.721',-17.300
'0:00.722',-17.500
'0:00.723',-17.500
'0:00.724',-17.400
'0:00.725',-17.100
'0:00.726',-16.600
'0:00.727',-16.200
'0:00.728',-16.000
'0:00.729',-16.100
'0:00.730',-16.700
'0:00.731',-17.600
'0:00.732',-18.500
'0:00.733',-19.200
'0:00.734',-19.600
'0:00.735',-19.500
'0:00.736',-19.100
'0:00.737',-18.800
'0:00.738',-18.600
'0:00.739',-18.600
'0:00.740',-18.600
'0:00.741',-18.200
'0:00.742',-17.400
'0:00.743',-16.200
'0:00.744',-14.800
'0:00.745',-13.500
'0:00.746',-12.300
'0:00.747',-11.300
'0:00.748',-10.400
'0:00.749',-9.400
'0:00.750',-8.700
'0:00.751',-8.300
'0:00.752',-8.400
'0:00.753',-8.800
'0:00.754',-9.100
'0:00.755',-9.000
'0:00.756',-8.500
'0:00.757',-7.700
'0:00.758',-7.100
'0:00.759',-7.000
'0:00.760',-7.500
'0:00.761',-8.300
'0:00.762',-9.100
'0:00.763',-9.500
'0:00.764',-9.500
'0:00.765',-9.300
'0:00.766',-9.000
'0:00.767',-8.700
'0:00.768',-8.600
'0:00.769',-8.500
'0:00.770',-8.600
'0:00.771',-8.900
'0:00.772',-9.400
'0:00.773',-10.100
'0:00.774',-10.500
'0:00.775',-10.400
'0:00.776',-9.500
'0:00.777',-8.000
'0:00.778',-6.300
'0:00.779',-4.900
'0:00.780',-3.900
'0:00.781',-3.400
'0:00.782',-3.200
'0:00.783',-2.900
'0:00.784',-2.500
'0:00.785',-2.000
'0:00.786',-1.600
'0:00.787',-1.700
'0:00.788',-2.500
'0:00.789',-3.700
'0:00.790',-5.300
'0:00.791',-6.900
'0:00.792',-8.000
'0:00.793',-8.600
'0:00.794',-8.500
'0:00.795',-7.900
'0:00.796',-7.100
'0:00.797',-6.500
'0:00.798',-6.300
'0:00.799',-6.600
'0:00.800',-7.100
'0:00.801',-7.600
'0:00.802',-8.000
'0:00.803',-8.300
'0:00.804',-8.400
'0:00.805',-8.500
'0:00.806',-8.500
'0:00.807',-8.300
'0:00.808',-7.800
'0:00.809',-7.000
'0:00.810',-6.100
'0:00.811',-5.200
'0:00.812',-4.500
'0:00.813',-3.800
'0:00.814',-3.200
'0:00.815',-2.700
'0:00.816',-2.400
'0:00.817',-2.400
'0:00.818',-2.600
'0:00.819',-2.900
'0:00.820',-3.300
'0:00.821',-3.500
'0:00.822',-3.800
'0:00.823',-4.200
'0:00.824',-4.700
'0:00.825',-5.400
'0:00.826',-5.800
'0:00.827',-5.800
'0:00.828',-5.400
'0:00.829',-4.800
'0:00.830',-4.400
'0:00.831',-4.600
'0:00.832',-5.300
'0:00.833',-6.200
'0:00.834',-6.700
'0:00.835',-6.500
'0:00.836',-5.700
'0:00.837',-4.800
'0:00.838',-4.400
'0:00.839',-5.000
'0:00.840',-6.300
'0:00.841',-7.700
'0:00.842',-8.600
'0:00.843',-8.400
'0:00.844',-7.400
'0:00.845',-6.300
'0:00.846',-5.600
'0:00.847',-5.700
'0:00.848',-6.400
'0:00.849',-7.000
'0:00.850',-6.800
'0:00.851',-5.600
'0:00.852',-3.700
'0:00.853',-1.900
'0:00.854',-0.900
'0:00.855',-0.900
'0:00.856',-1.800
'0:00.857',-2.800
'0:00.858',-3.300
'0:00.859',-2.900
'0:00.860',-1.900
'0:00.861',-0.800
'0:00.862',-0.400
'0:00.863',-1.000
'0:00.864',-2.400
'0:00.865',-4.100
'0:00.866',-5.400
'0:00.867',-5.800
'0:00.868',-5.300
'0:00.869',-4.300
'0:00.870',-3.100
'0:00.871',-2.300
'0:00.872',-2.000
'0:00.873',-2.100
'0:00.874',-2.500
'0:00.875',-3.000
'0:00.876',-3.400
'0:00.877',-3.600
'0:00.878',-3.600
'0:00.879',-3.400
'0:00.880',-3.200
'0:00.881',-3.000
'0:00.882',-3.000
'0:00.883',-3.300
'0:00.884',-3.700
'0:00.885',-3.900
'0:00.886',-3.600
'0:00.887',-2.600
'0:00.888',-1.100
'0:00.889',0.700
'0:00.890',2.200
'0:00.891',2.900
'0:00.892',2.600
'0:00.893',1.700
'0:00.894',0.400
'0:00.895',-0.800
'0:00.896',-1.800
'0:00.897',-2.700
'0:00.898',-3.500
'0:00.899',-4.300
'0:00.900',-5.100
'0:00.901',-5.400
'0:00.902',-5.200
'0:00.903',-4.600
'0:00.904',-3.700
'0:00.905',-3.000
'0:00.906',-2.700
'0:00.907',-2.900
'0:00.908',-3.400
'0:00.909',-3.900
'0:00.910',-4.200
'0:00.911',-4.500
'0:00.912',-4.700
'0:00.913',-4.800
'0:00.914',-4.900
'0:00.915',-4.800
'0:00.916',-4.600
'0:00.917',-4.400
'0:00.918',-4.400
'0:00.919',-4.700
'0:00.920',-5.400
'0:00.921',-6.300
'0:00.922',-7.000
'0:00.923',-7.600
'0:00.924',-8.000
'0:00.925',-8.300
'0:00.926',-8.700
'0:00.927',-9.000
'0:00.928',-8.800
'0:00.929',-7.800
'0:00.930',-6.000
'0:00.931',-3.600
'0:00.932',-1.300
'0:00.933',0.400
'0:00.934',1.000
'0:00.935',0.600
'0:00.936',-0.300
'0:00.937',-1.000
'0:00.938',-1.300
'0:00.939',-1.200
'0:00.940',-1.200
'0:00.941',-1.500
'0:00.942',-2.200
'0:00.943',-3.000
'0:00.944',-3.300
'0:00.945',-3.100
'0:00.946',-2.200
'0:00.947',-1.300
'0:00.948',-0.800
'0:00.949',-0.800
'0:00.950',-1.200
'0:00.951',-1.600
'0:00.952',-1.700
'0:00.953',-1.300
'0:00.954',-0.800
'0:00.955',-0.500
'0:00.956',-0.500
'0:00.957',-0.800
'0:00.958',-1.100
'0:00.959',-1.100
'0:00.960',-1.000
'0:00.961',-0.800
'0:00.962',-0.700
'0:00.963',-0.800
'0:00.964',-0.700
'0:00.965',-0.400
'0:00.966',0.200
'0:00.967',1.100
'0:00.968',1.700
'0:00.969',1.900
'0:00.970',1.500
'0:00.971',0.900
'0:00.972',0.400
'0:00.973',0.400
'0:00.974',1.100
'0:00.975',2.400
'0:00.976',4.000
'0:00.977',5.700
'0:00.978',7.300
'0:00.979',8.700
'0:00.980',10.000
'0:00.981',11.100
'0:00.982',11.800
'0:00.983',11.800
'0:00.984',11.000
'0:00.985',9.500
'0:00.986',7.600
'0:00.987',5.700
'0:00.988',4.300
'0:00.989',3.400
'0:00.990',3.200
'0:00.991',3.200
'0:00.992',3.300
'0:00.993',3.000
'0:00.994',2.300
'0:00.995',1.100
'0:00.996',-0.300
'0:00.997',-1.500
'0:00.998',-2.500
'0:00.999',-2.900
'0:01.000',-2.800
'0:01.001',-2.600
'0:01.002',-2.200
'0:01.003',-1.900
'0:01.004',-1.600
'0:01.005',-1.000
'0:01.006',-0.200
'0:01.007',0.800
'0:01.008',1.700
'0:01.009',2.300
'0:01.010',2.400
'0:01.011',1.900
'0:01.012',1.000
'0:01.013',-0.500
'0:01.014',-2.200
'0:01.015',-4.000
'0:01.016',-5.500
'0:01.017',-6.400
'0:01.018',-6.200
'0:01.019',-5.100
'0:01.020',-3.400
'0:01.021',-1.600
'0:01.022',-0.300
'0:01.023',0.100
'0:01.024',-0.300
'0:01.025',-1.300
'0:01.026',-2.100
'0:01.027',-2.300
'0:01.028',-1.600
'0:01.029',-0.400
'0:01.030',1.000
'0:01.031',1.900
'0:01.032',2.100
'0:01.033',1.800
'0:01.034',1.200
'0:01.035',0.500
'0:01.036',-0.200
'0:01.037',-1.200
'0:01.038',-2.500
'0:01.039',-3.800
'0:01.040',-4.700
'0:01.041',-4.700
'0:01.042',-3.600
'0:01.043',-1.900
'0:01.044',-0.500
'0:01.045',0.100
'0:01.046',-0.400
'0:01.047',-1.400
'0:01.048',-2.000
'0:01.049',-1.800
'0:01.050',-0.500
'0:01.051',1.300
'0:01.052',2.900
'0:01.053',3.700
'0:01.054',3.700
'0:01.055',3.100
'0:01.056',2.500
'0:01.057',2.300
'0:01.058',2.700
'0:01.059',3.600
'0:01.060',4.800
'0:01.061',5.900
'0:01.062',6.600
'0:01.063',6.700
'0:01.064',6.100
'0:01.065',5.100
'0:01.066',4.100
'0:01.067',3.600
'0:01.068',3.700
'0:01.069',4.300
'0:01.070',5.100
'0:01.071',5.700
'0:01.072',5.900
'0:01.073',5.800
'0:01.074',5.700
'0:01.075',5.800
'0:01.076',6.100
'0:01.077',6.500
'0:01.078',6.800
'0:01.079',7.000
'0:01.080',7.300
'0:01.081',7.900
'0:01.082',9.000
'0:01.083',10.500
'0:01.084',11.800
'0:01.085',12.500
'0:01.086',12.000
'0:01.087',10.600
'0:01.088',8.600
'0:01.089',6.700
'0:01.090',5.400
'0:01.091',5.000
'0:01.092',5.200
'0:01.093',5.700
'0:01.094',6.000
'0:01.095',6.100
'0:01.096',6.100
'0:01.097',6.100
'0:01.098',6.200
'0:01.099',6.400
'0:01.100',6.600
'0:01.101',6.700
'0:01.102',6.700
'0:01.103',6.700
'0:01.104',6.900
'0:01.105',7.300
'0:01.106',7.900
'0:01.107',8.900
'0:01.108',10.600
'0:01.109',13.400
'0:01.110',17.600
'0:01.111',22.900
'0:01.112',28.200
'0:01.113',32.400
'0:01.114',34.201
'0:01.115',33.101
'0:01.116',29.700
'0:01.117',25.100
'0:01.118',20.600
'0:01.119',16.800
'0:01.120',13.600
'0:01.121',10.500
'0:01.122',6.700
'0:01.123',1.900
'0:01.124',-3.600
'0:01.125',-8.900
'0:01.126',-13.100
'0:01.127',-15.600
'0:01.128',-16.300
'0:01.129',-15.400
'0:01.130',-13.700
'0:01.131',-11.700
'0:01.132',-10.000
'0:01.133',-8.700
'0:01.134',-7.700
'0:01.135',-7.000
'0:01.136',-6.200
'0:01.137',-5.400
'0:01.138',-4.500
'0:01.139',-4.000
'0:01.140',-3.700
'0:01.141',-3.700
'0:01.142',-3.700
'0:01.143',-3.600
'0:01.144',-3.300
'0:01.145',-2.700
'0:01.146',-2.000
'0:01.147',-1.300
'0:01.148',-0.800
'0:01.149',-0.600
'0:01.150',-0.800
'0:01.151',-1.300
'0:01.152',-2.000
'0:01.153',-2.700
'0:01.154',-3.100
'0:01.155',-3.100
'0:01.156',-2.500
'0:01.157',-1.400
'0:01.158',0.000
'0:01.159',1.600
'0:01.160',3.000
'0:01.161',4.100
'0:01.162',4.700
'0:01.163',4.600
'0:01.164',3.900
'0:01.165',2.800
'0:01.166',1.700
'0:01.167',0.800
'0:01.168',0.400
'0:01.169',0.500
'0:01.170',0.700
'0:01.171',0.900
'0:01.172',0.900
'0:01.173',0.700
'0:01.174',0.400
'0:01.175',0.200
'0:01.176',0.300
'0:01.177',0.600
'0:01.178',0.900
'0:01.179',0.800
'0:01.180',0.200
'0:01.181',-0.800
'0:01.182',-1.900
'0:01.183',-2.600
'0:01.184',-2.600
'0:01.185',-1.800
'0:01.186',-0.500
'0:01.187',0.800
'0:01.188',1.700
'0:01.189',2.000
'0:01.190',1.700
'0:01.191',1.100
'0:01.192',0.600
'0:01.193',0.400
'0:01.194',0.500
'0:01.195',0.800
'0:01.196',0.900
'0:01.197',0.500
'0:01.198',-0.500
'0:01.199',-2.100
'0:01.200',-4.000
'0:01.201',-5.900
'0:01.202',-7.400
'0:01.203',-8.200
'0:01.204',-8.200
'0:01.205',-7.600
'0:01.206',-6.600
'0:01.207',-5.300
'0:01.208',-4.100
'0:01.209',-3.400
'0:01.210',-3.500
'0:01.211',-4.400
'0:01.212',-5.700
'0:01.213',-6.800
'0:01.214',-7.000
'0:01.215',-6.000
'0:01.216',-4.400
'0:01.217',-2.800
'0:01.218',-2.100
'0:01.219',-2.600
'0:01.220',-4.100
'0:01.221',-5.900
'0:01.222',-7.200
'0:01.223',-7.600
'0:01.224',-7.100
'0:01.225',-6.200
'0:01.226',-5.200
'0:01.227',-4.300
'0:01.228',-3.800
'0:01.229',-3.500
'0:01.230',-3.400
'0:01.231',-3.500
'0:01.232',-3.800
'0:01.233',-4.000
'0:01.234',-4.200
'0:01.235',-4.300
'0:01.236',-4.400
'0:01.237',-4.500
'0:01.238',-4.800
'0:01.239',-5.300
'0:01.240',-5.700
'0:01.241',-6.100
'0:01.242',-6.200
'0:01.243',-6.200
'0:01.244',-6.300
'0:01.245',-6.500
'0:01.246',-6.700
'0:01.247',-6.800
'0:01.248',-6.600
'0:01.249',-6.000
'0:01.250',-5.200
'0:01.251',-4.500
'0:01.252',-4.000
'0:01.253',-3.700
'0:01.254',-3.400
'0:01.255',-2.800
'0:01.256',-1.900
'0:01.257',-0.800
'0:01.258',0.100
'0:01.259',0.700
'0:01.260',0.800
'0:01.261',0.600
'0:01.262',0.500
'0:01.263',0.400
'0:01.264',0.400
'0:01.265',0.400
'0:01.266',0.100
'0:01.267',-0.400
'0:01.268',-1.000
'0:01.269',-1.400
'0:01.270',-1.500
'0:01.271',-1.300
'0:01.272',-0.900
'0:01.273',-0.700
'0:01.274',-0.800
'0:01.275',-1.300
'0:01.276',-2.100
'0:01.277',-2.900
'0:01.278',-3.400
'0:01.279',-3.500
'0:01.280',-3.100
'0:01.281',-2.600
'0:01.282',-2.200
'0:01.283',-2.200
'0:01.284',-2.500
'0:01.285',-3.000
'0:01.286',-3.300
'0:01.287',-3.300
'0:01.288',-3.000
'0:01.289',-2.700
'0:01.290',-2.500
'0:01.291',-2.600
'0:01.292',-2.700
'0:01.293',-2.700
'0:01.294',-2.600
'0:01.295',-2.300
'0:01.296',-2.000
'0:01.297',-1.900
'0:01.298',-1.900
'0:01.299',-1.900
'0:01.300',-1.900
'0:01.301',-1.800
'0:01.302',-1.700
'0:01.303',-1.900
'0:01.304',-2.400
'0:01.305',-2.900
'0:01.306',-3.200
'0:01.307',-3.200
'0:01.308',-3.000
'0:01.309',-2.900
'0:01.310',-3.100
'0:01.311',-3.700
'0:01.312',-4.600
'0:01.313',-5.400
'0:01.314',-5.800
'0:01.315',-5.500
'0:01.316',-4.500
'0:01.317',-3.300
'0:01.318',-1.900
'0:01.319',-0.700
'0:01.320',0.200
'0:01.321',1.000
'0:01.322',1.700
'0:01.323',2.300
'0:01.324',2.800
'0:01.325',2.900
'0:01.326',2.500
'0:01.327',1.600
'0:01.328',0.400
'0:01.329',-0.800
'0:01.330',-1.500
'0:01.331',-1.600
'0:01.332',-1.400
'0:01.333',-1.200
'0:01.334',-1.600
'0:01.335',-2.600
'0:01.336',-3.800
'0:01.337',-4.800
'0:01.338',-4.900
'0:01.339',-4.100
'0:01.340',-2.800
'0:01.341',-1.500
'0:01.342',-0.900
'0:01.343',-1.200
'0:01.344',-2.000
'0:01.345',-2.800
'0:01.346',-3.400
'0:01.347',-3.500
'0:01.348',-3.400
'0:01.349',-3.500
'0:01.350',-3.900
'0:01.351',-4.800
'0:01.352',-5.900
'0:01.353',-6.800
'0:01.354',-7.500
'0:01.355',-7.700
'0:01.356',-7.600
'0:01.357',-7.300
'0:01.358',-6.800
'0:01.359',-6.200
'0:01.360',-5.500
'0:01.361',-4.800
'0:01.362',-4.100
'0:01.363',-3.700
'0:01.364',-3.600
'0:01.365',-3.700
'0:01.366',-4.000
'0:01.367',-4.100
'0:01.368',-3.900
'0:01.369',-3.600
'0:01.370',-3.300
'0:01.371',-3.100
'0:01.372',-3.100
'0:01.373',-3.100
'0:01.374',-2.900
'0:01.375',-2.400
'0:01.376',-1.400
'0:01.377',-0.400
'0:01.378',0.300
'0:01.379',0.400
'0:01.380',-0.300
'0:01.381',-1.600
'0:01.382',-3.100
'0:01.383',-4.500
'0:01.384',-5.500
'0:01.385',-6.000
'0:01.386',-6.100
'0:01.387',-6.000
'0:01.388',-5.600
'0:01.389',-5.200
'0:01.390',-4.500
'0:01.391',-3.600
'0:01.392',-2.500
'0:01.393',-1.500
'0:01.394',-0.900
'0:01.395',-0.800
'0:01.396',-1.300
'0:01.397',-2.000
'0:01.398',-2.600
'0:01.399',-2.900
'0:01.400',-2.900
'0:01.401',-2.600
'0:01.402',-2.100
'0:01.403',-1.600
'0:01.404',-1.000
'0:01.405',-0.300
'0:01.406',0.200
'0:01.407',0.500
'0:01.408',0.500
'0:01.409',0.300
'0:01.410',0.100
'0:01.411',0.100
'0:01.412',0.300
'0:01.413',0.600
'0:01.414',1.100
'0:01.415',1.700
'0:01.416',2.600
'0:01.417',4.000
'0:01.418',5.800
'0:01.419',7.800
'0:01.420',9.900
'0:01.421',11.900
'0:01.422',13.600
'0:01.423',15.200
'0:01.424',16.700
'0:01.425',18.000
'0:01.426',18.600
'0:01.427',18.400
'0:01.428',17.400
'0:01.429',15.800
'0:01.430',14.100
'0:01.431',12.900
'0:01.432',12.300
'0:01.433',11.900
'0:01.434',11.600
'0:01.435',10.800
'0:01.436',9.600
'0:01.437',8.100
'0:01.438',6.200
'0:01.439',4.000
'0:01.440',1.400
'0:01.441',-1.700
'0:01.442',-5.300
'0:01.443',-8.900
'0:01.444',-12.100
'0:01.445',-14.400
'0:01.446',-15.600
'0:01.447',-15.800
'0:01.448',-15.500
'0:01.449',-15.100
'0:01.450',-15.100
'0:01.451',-15.400
'0:01.452',-16.100
'0:01.453',-16.900
'0:01.454',-17.700
'0:01.455',-18.500
'0:01.456',-19.400
'0:01.457',-20.400
'0:01.458',-21.400
'0:01.459',-22.200
'0:01.460',-22.600
'0:01.461',-22.500
'0:01.462',-21.900
'0:01.463',-20.900
'0:01.464',-19.700
'0:01.465',-18.500
'0:01.466',-17.100
'0:01.467',-15.700
'0:01.468',-14.300
'0:01.469',-13.000
'0:01.470',-12.000
'0:01.471',-11.700
'0:01.472',-11.900
'0:01.473',-12.600
'0:01.474',-13.200
'0:01.475',-13.300
'0:01.476',-12.500
'0:01.477',-11.000
'0:01.478',-9.000
'0:01.479',-7.100
'0:01.480',-5.800
'0:01.481',-5.000
'0:01.482',-4.600
'0:01.483',-4.100
'0:01.484',-3.100
'0:01.485',-1.600
'0:01.486',0.300
'0:01.487',2.000
'0:01.488',3.400
'0:01.489',4.200
'0:01.490',4.400
'0:01.491',4.300
'0:01.492',4.000
'0:01.493',3.700
'0:01.494',3.400
'0:01.495',3.100
'0:01.496',2.800
'0:01.497',2.300
'0:01.498',1.800
'0:01.499',1.400
'0:01.500',1.300
'0:01.501',1.400
'0:01.502',1.900
'0:01.503',2.500
'0:01.504',3.100
'0:01.505',3.600
'0:01.506',4.100
'0:01.507',4.600
'0:01.508',5.400
'0:01.509',6.400
'0:01.510',7.600
'0:01.511',8.800
'0:01.512',9.800
'0:01.513',10.400
'0:01.514',10.500
'0:01.515',10.400
'0:01.516',10.200
'0:01.517',10.000
'0:01.518',10.000
'0:01.519',9.900
'0:01.520',9.900
'0:01.521',9.700
'0:01.522',9.300
'0:01.523',8.900
'0:01.524',8.600
'0:01.525',8.400
'0:01.526',8.500
'0:01.527',8.800
'0:01.528',9.400
'0:01.529',10.200
'0:01.530',11.200
'0:01.531',12.200
'0:01.532',13.400
'0:01.533',14.500
'0:01.534',15.500
'0:01.535',16.100
'0:01.536',16.300
'0:01.537',15.800
'0:01.538',14.700
'0:01.539',13.100
'0:01.540',11.700
'0:01.541',10.900
'0:01.542',11.000
'0:01.543',11.900
'0:01.544',13.200
'0:01.545',14.000
'0:01.546',14.000
'0:01.547',13.100
'0:01.548',11.900
'0:01.549',10.800
'0:01.550',10.400
'0:01.551',10.400
'0:01.552',10.700
'0:01.553',11.000
'0:01.554',11.000
'0:01.555',10.900
'0:01.556',10.900
'0:01.557',10.900
'0:01.558',10.800
'0:01.559',10.300
'0:01.560',9.500
'0:01.561',8.800
'0:01.562',8.500
'0:01.563',8.800
'0:01.564',9.600
'0:01.565',10.600
'0:01.566',11.400
'0:01.567',12.200
'0:01.568',13.200
'0:01.569',14.400
'0:01.570',15.900
'0:01.571',17.400
'0:01.572',18.600
'0:01.573',19.500
'0:01.574',20.800
'0:01.575',23.100
'0:01.576',26.700
'0:01.577',31.000
'0:01.578',34.801
'0:01.579',37.001
'0:01.580',36.801
'0:01.581',34.401
'0:01.582',30.900
'0:01.583',27.500
'0:01.584',24.600
'0:01.585',22.100
'0:01.586',19.300
'0:01.587',15.700
'0:01.588',11.300
'0:01.589',6.800
'0:01.590',3.200
'0:01.591',0.900
'0:01.592',0.000
'0:01.593',-0.100
'0:01.594',0.000
'0:01.595',0.000
'0:01.596',0.100
'0:01.597',0.600
'0:01.598',1.800
'0:01.599',3.600
'0:01.600',5.400
'0:01.601',6.700
'0:01.602',7.200
'0:01.603',6.900
'0:01.604',6.100
'0:01.605',5.400
'0:01.606',4.900
'0:01.607',4.500
'0:01.608',4.400
'0:01.609',4.600
'0:01.610',5.300
'0:01.611',6.500
'0:01.612',7.900
'0:01.613',8.900
'0:01.614',9.100
'0:01.615',8.400
'0:01.616',7.200
'0:01.617',6.300
'0:01.618',6.100
'0:01.619',6.600
'0:01.620',7.500
'0:01.621',8.000
'0:01.622',7.800
'0:01.623',7.000
'0:01.624',6.000
'0:01.625',5.400
'0:01.626',5.200
'0:01.627',5.400
'0:01.628',5.400
'0:01.629',5.000
'0:01.630',4.200
'0:01.631',3.500
'0:01.632',3.200
'0:01.633',3.300
'0:01.634',3.600
'0:01.635',3.700
'0:01.636',3.500
'0:01.637',2.900
'0:01.638',2.400
'0:01.639',2.300
'0:01.640',2.800
'0:01.641',3.700
'0:01.642',4.600
'0:01.643',5.200
'0:01.644',5.200
'0:01.645',4.700
'0:01.646',4.100
'0:01.647',3.500
'0:01.648',3.200
'0:01.649',3.100
'0:01.650',3.000
'0:01.651',2.600
'0:01.652',1.800
'0:01.653',0.700
'0:01.654',-0.300
'0:01.655',-1.000
'0:01.656',-0.900
'0:01.657',-0.100
'0:01.658',1.100
'0:01.659',2.200
'0:01.660',2.900
'0:01.661',2.800
'0:01.662',2.100
'0:01.663',1.100
'0:01.664',0.300
'0:01.665',-0.200
'0:01.666',-0.400
'0:01.667',-0.700
'0:01.668',-1.400
'0:01.669',-2.700
'0:01.670',-4.400
'0:01.671',-5.900
'0:01.672',-6.800
'0:01.673',-6.600
'0:01.674',-5.500
'0:01.675',-4.100
'0:01.676',-2.800
'0:01.677',-2.200
'0:01.678',-2.100
'0:01.679',-2.600
'0:01.680',-3.100
'0:01.681',-3.500
'0:01.682',-3.700
'0:01.683',-3.600
'0:01.684',-3.200
'0:01.685',-2.400
'0:01.686',-1.400
'0:01.687',-0.500
'0:01.688',0.200
'0:01.689',0.400
'0:01.690',0.000
'0:01.691',-0.600
'0:01.692',-1.100
'0:01.693',-1.300
'0:01.694',-1.200
'0:01.695',-1.100
'0:01.696',-1.300
'0:01.697',-1.800
'0:01.698',-2.300
'0:01.699',-2.500
'0:01.700',-2.300
'0:01.701',-1.700
'0:01.702',-1.100
'0:01.703',-0.800
'0:01.704',-0.700
'0:01.705',-0.600
'0:01.706',-0.100
'0:01.707',0.700
'0:01.708',1.500
'0:01.709',2.000
'0:01.710',1.800
'0:01.711',1.200
'0:01.712',0.800
'0:01.713',0.900
'0:01.714',1.900
'0:01.715',3.200
'0:01.716',4.300
'0:01.717',4.800
'0:01.718',4.500
'0:01.719',4.000
'0:01.720',3.800
'0:01.721',4.300
'0:01.722',5.300
'0:01.723',6.200
'0:01.724',6.400
'0:01.725',5.800
'0:01.726',4.400
'0:01.727',2.900
'0:01.728',2.000
'0:01.729',2.000
'0:01.730',3.000
'0:01.731',4.500
'0:01.732',6.100
'0:01.733',7.500
'0:01.734',8.400
'0:01.735',9.000
'0:01.736',9.600
'0:01.737',10.000
'0:01.738',10.100
'0:01.739',9.700
'0:01.740',8.500
'0:01.741',6.700
'0:01.742',4.700
'0:01.743',3.100
'0:01.744',2.500
'0:01.745',3.000
'0:01.746',4.200
'0:01.747',5.600
'0:01.748',6.600
'0:01.749',7.300
'0:01.750',7.800
'0:01.751',8.600
'0:01.752',10.000
'0:01.753',11.900
'0:01.754',13.600
'0:01.755',14.800
'0:01.756',15.000
'0:01.757',14.500
'0:01.758',13.800
'0:01.759',13.300
'0:01.760',13.500
'0:01.761',13.900
'0:01.762',14.200
'0:01.763',13.900
'0:01.764',12.600
'0:01.765',10.700
'0:01.766',8.700
'0:01.767',7.500
'0:01.768',7.200
'0:01.769',7.800
'0:01.770',8.700
'0:01.771',9.500
'0:01.772',9.800
'0:01.773',9.500
'0:01.774',9.100
'0:01.775',8.800
'0:01.776',8.700
'0:01.777',8.900
'0:01.778',9.000
'0:01.779',8.700
'0:01.780',8.000
'0:01.781',7.100
'0:01.782',6.500
'0:01.783',6.500
'0:01.784',6.900
'0:01.785',7.300
'0:01.786',7.300
'0:01.787',6.600
'0:01.788',5.400
'0:01.789',4.300
'0:01.790',3.900
'0:01.791',4.400
'0:01.792',5.400
'0:01.793',6.600
'0:01.794',7.100
'0:01.795',7.000
'0:01.796',6.400
'0:01.797',6.000
'0:01.798',6.200
'0:01.799',7.100
'0:01.800',8.300
'0:01.801',9.300
'0:01.802',9.600
'0:01.803',8.900
'0:01.804',7.400
'0:01.805',5.400
'0:01.806',3.600
'0:01.807',2.200
'0:01.808',1.600
'0:01.809',1.900
'0:01.810',3.100
'0:01.811',4.900
'0:01.812',6.800
'0:01.813',8.400
'0:01.814',9.400
'0:01.815',9.600
'0:01.816',9.300
'0:01.817',8.900
'0:01.818',8.700
'0:01.819',8.700
'0:01.820',9.000
'0:01.821',9.300
'0:01.822',9.500
'0:01.823',9.500
'0:01.824',9.500
'0:01.825',9.500
'0:01.826',9.400
'0:01.827',9.100
'0:01.828',8.600
'0:01.829',8.000
'0:01.830',7.600
'0:01.831',7.400
'0:01.832',7.800
'0:01.833',8.500
'0:01.834',9.300
'0:01.835',10.000
'0:01.836',10.300
'0:01.837',10.200
'0:01.838',9.900
'0:01.839',9.300
'0:01.840',8.700
'0:01.841',8.000
'0:01.842',7.400
'0:01.843',6.900
'0:01.844',6.500
'0:01.845',6.300
'0:01.846',6.100
'0:01.847',5.700
'0:01.848',5.000
'0:01.849',4.000
'0:01.850',3.000
'0:01.851',2.100
'0:01.852',1.700
'0:01.853',1.800
'0:01.854',2.300
'0:01.855',2.900
'0:01.856',3.200
'0:01.857',3.300
'0:01.858',3.100
'0:01.859',3.000
'0:01.860',2.900
'0:01.861',2.800
'0:01.862',2.600
'0:01.863',2.100
'0:01.864',1.400
'0:01.865',0.700
'0:01.866',0.400
'0:01.867',0.700
'0:01.868',1.400
'0:01.869',2.100
'0:01.870',2.500
'0:01.871',2.100
'0:01.872',1.300
'0:01.873',0.400
'0:01.874',-0.200
'0:01.875',-0.300
'0:01.876',0.100
'0:01.877',0.500
'0:01.878',0.800
'0:01.879',1.000
'0:01.880',1.100
'0:01.881',1.500
'0:01.882',2.300
'0:01.883',3.200
'0:01.884',4.100
'0:01.885',4.600
'0:01.886',4.600
'0:01.887',3.800
'0:01.888',2.600
'0:01.889',1.200
'0:01.890',0.100
'0:01.891',-0.600
'0:01.892',-0.500
'0:01.893',0.300
'0:01.894',1.300
'0:01.895',2.300
'0:01.896',2.800
'0:01.897',2.900
'0:01.898',2.700
'0:01.899',2.600
'0:01.900',2.900
'0:01.901',3.500
'0:01.902',4.400
'0:01.903',5.200
'0:01.904',5.600
'0:01.905',5.500
'0:01.906',4.700
'0:01.907',3.500
'0:01.908',2.200
'0:01.909',1.400
'0:01.910',1.400
'0:01.911',2.500
'0:01.912',4.300
'0:01.913',6.200
'0:01.914',7.400
'0:01.915',7.600
'0:01.916',7.000
'0:01.917',5.900
'0:01.918',5.100
'0:01.919',4.600
'0:01.920',4.400
'0:01.921',4.100
'0:01.922',3.800
'0:01.923',3.400
'0:01.924',3.300
'0:01.925',3.300
'0:01.926',3.000
'0:01.927',2.200
'0:01.928',0.700
'0:01.929',-1.300
'0:01.930',-3.000
'0:01.931',-3.700
'0:01.932',-3.200
'0:01.933',-1.600
'0:01.934',0.300
'0:01.935',2.000
'0:01.936',3.000
'0:01.937',3.600
'0:01.938',3.800
'0:01.939',3.900
'0:01.940',3.700
'0:01.941',2.900
'0:01.942',1.500
'0:01.943',-0.500
'0:01.944',-2.500
'0:01.945',-3.800
'0:01.946',-4.000
'0:01.947',-3.200
'0:01.948',-1.700
'0:01.949',-0.400
'0:01.950',0.100
'0:01.951',-0.200
'0:01.952',-1.300
'0:01.953',-2.600
'0:01.954',-3.500
'0:01.955',-3.700
'0:01.956',-3.300
'0:01.957',-2.400
'0:01.958',-1.500
'0:01.959',-0.800
'0:01.960',-0.500
'0:01.961',-0.500
'0:01.962',-0.700
'0:01.963',-0.800
'0:01.964',-1.000
'0:01.965',-1.300
'0:01.966',-2.000
'0:01.967',-2.900
'0:01.968',-4.000
'0:01.969',-4.900
'0:01.970',-5.500
'0:01.971',-5.600
'0:01.972',-5.300
'0:01.973',-4.700
'0:01.974',-4.000
'0:01.975',-3.300
'0:01.976',-2.500
'0:01.977',-1.600
'0:01.978',-0.600
'0:01.979',0.400
'0:01.980',1.300
'0:01.981',1.800
'0:01.982',1.700
'0:01.983',1.300
'0:01.984',0.500
'0:01.985',-0.300
'0:01.986',-0.900
'0:01.987',-1.100
'0:01.988',-0.900
'0:01.989',-0.600
'0:01.990',-0.200
'0:01.991',-0.100
'0:01.992',-0.500
'0:01.993',-1.100
'0:01.994',-1.900
'0:01.995',-2.500
'0:01.996',-2.600
'0:01.997',-2.100
'0:01.998',-1.300
'0:01.999',-0.500
'0:02.000',0.100
'0:02.001',0.200
'0:02.002',-0.200
'0:02.003',-0.600
'0:02.004',-0.800
'0:02.005',-0.500
'0:02.006',0.300
'0:02.007',1.300
'0:02.008',2.200
'0:02.009',2.600
'0:02.010',2.400
'0:02.011',1.500
'0:02.012',0.600
'0:02.013',-0.100
'0:02.014',0.100
'0:02.015',1.100
'0:02.016',2.500
'0:02.017',3.600
'0:02.018',3.600
'0:02.019',2.400
'0:02.020',0.500
'0:02.021',-1.500
'0:02.022',-2.900
'0:02.023',-3.500
'0:02.024',-3.400
'0:02.025',-3.100
'0:02.026',-2.900
'0:02.027',-2.700
'0:02.028',-2.300
'0:02.029',-1.600
'0:02.030',-0.900
'0:02.031',-0.500
'0:02.032',-0.500
'0:02.033',-1.000
'0:02.034',-1.700
'0:02.035',-2.200
'0:02.036',-2.400
'0:02.037',-2.100
'0:02.038',-1.600
'0:02.039',-0.600
'0:02.040',1.300
'0:02.041',4.200
'0:02.042',8.100
'0:02.043',12.300
'0:02.044',15.600
'0:02.045',17.100
'0:02.046',16.500
'0:02.047',14.400
'0:02.048',11.500
'0:02.049',8.800
'0:02.050',6.500
'0:02.051',4.400
'0:02.052',1.800
'0:02.053',-1.900
'0:02.054',-6.500
'0:02.055',-11.600
'0:02.056',-16.200
'0:02.057',-19.400
'0:02.058',-20.700
'0:02.059',-20.400
'0:02.060',-19.100
'0:02.061',-17.300
'0:02.062',-15.400
'0:02.063',-13.700
'0:02.064',-11.800
'0:02.065',-9.700
'0:02.066',-7.700
'0:02.067',-5.900
'0:02.068',-4.800
'0:02.069',-4.400
'0:02.070',-4.600
'0:02.071',-4.700
'0:02.072',-4.500
'0:02.073',-4.000
'0:02.074',-3.400
'0:02.075',-3.300
'0:02.076',-3.700
'0:02.077',-4.700
'0:02.078',-5.900
'0:02.079',-6.800
'0:02.080',-7.400
'0:02.081',-7.500
'0:02.082',-7.400
'0:02.083',-7.100
'0:02.084',-6.500
'0:02.085',-5.900
'0:02.086',-5.200
'0:02.087',-4.700
'0:02.088',-4.800
'0:02.089',-5.600
'0:02.090',-6.900
'0:02.091',-8.300
'0:02.092',-9.600
'0:02.093',-10.600
'0:02.094',-11.100
'0:02.095',-11.600
'0:02.096',-11.900
'0:02.097',-12.200
'0:02.098',-12.100
'0:02.099',-11.800
'0:02.100',-11.200
'0:02.101',-10.900
'0:02.102',-11.100
'0:02.103',-11.800
'0:02.104',-12.700
'0:02.105',-13.400
'0:02.106',-13.300
'0:02.107',-12.500
'0:02.108',-11.400
'0:02.109',-10.700
'0:02.110',-10.700
'0:02.111',-11.500
'0:02.112',-12.600
'0:02.113',-13.300
'0:02.114',-13.300
'0:02.115',-12.600
'0:02.116',-11.700
'0:02.117',-11.000
'0:02.118',-10.700
'0:02.119',-10.700
'0:02.120',-10.900
'0:02.121',-10.800
'0:02.122',-10.500
'0:02.123',-9.900
'0:02.124',-9.300
'0:02.125',-8.700
'0:02.126',-8.200
'0:02.127',-7.900
'0:02.128',-7.700
'0:02.129',-7.600
'0:02.130',-7.700
'0:02.131',-7.700
'0:02.132',-7.600
'0:02.133',-7.200
'0:02.134',-6.600
'0:02.135',-6.100
'0:02.136',-6.000
'0:02.137',-6.400
'0:02.138',-7.100
'0:02.139',-7.900
'0:02.140',-8.400
'0:02.141',-8.400
'0:02.142',-8.000
'0:02.143',-7.400
'0:02.144',-6.700
'0:02.145',-5.700
'0:02.146',-4.400
'0:02.147',-2.500
'0:02.148',-0.100
'0:02.149',2.300
'0:02.150',4.200
'0:02.151',5.200
'0:02.152',5.100
'0:02.153',4.200
'0:02.154',2.900
'0:02.155',1.900
'0:02.156',1.400
'0:02.157',1.500
'0:02.158',1.900
'0:02.159',2.300
'0:02.160',2.000
'0:02.161',0.800
'0:02.162',-1.500
'0:02.163',-4.400
'0:02.164',-7.500
'0:02.165',-10.200
'0:02.166',-12.100
'0:02.167',-13.400
'0:02.168',-14.300
'0:02.169',-15.300
'0:02.170',-16.800
'0:02.171',-18.700
'0:02.172',-20.600
'0:02.173',-22.200
'0:02.174',-22.900
'0:02.175',-22.600
'0:02.176',-21.500
'0:02.177',-20.100
'0:02.178',-18.800
'0:02.179',-17.900
'0:02.180',-17.600
'0:02.181',-17.800
'0:02.182',-18.300
'0:02.183',-18.600
'0:02.184',-18.600
'0:02.185',-18.300
'0:02.186',-17.700
'0:02.187',-17.300
'0:02.188',-16.900
'0:02.189',-16.700
'0:02.190',-16.300
'0:02.191',-15.600
'0:02.192',-14.500
'0:02.193',-13.200
'0:02.194',-12.200
'0:02.195',-11.900
'0:02.196',-12.600
'0:02.197',-14.100
'0:02.198',-15.900
'0:02.199',-17.400
'0:02.200',-18.600
'0:02.201',-19.300
'0:02.202',-19.800
'0:02.203',-20.000
'0:02.204',-19.800
'0:02.205',-19.100
'0:02.206',-17.900
'0:02.207',-16.400
'0:02.208',-15.300
'0:02.209',-14.800
'0:02.210',-15.100
'0:02.211',-15.500
'0:02.212',-15.400
'0:02.213',-14.500
'0:02.214',-12.800
'0:02.215',-11.100
'0:02.216',-9.900
'0:02.217',-9.800
'0:02.218',-10.300
'0:02.219',-10.800
'0:02.220',-10.700
'0:02.221',-9.500
'0:02.222',-7.600
'0:02.223',-5.500
'0:02.224',-3.700
'0:02.225',-2.500
'0:02.226',-1.800
'0:02.227',-1.300
'0:02.228',-0.700
'0:02.229',-0.200
'0:02.230',0.000
'0:02.231',-0.400
'0:02.232',-1.300
'0:02.233',-2.600
'0:02.234',-3.900
'0:02.235',-4.700
'0:02.236',-5.000
'0:02.237',-4.700
'0:02.238',-4.200
'0:02.239',-3.800
'0:02.240',-3.700
'0:02.241',-4.100
'0:02.242',-4.700
'0:02.243',-5.500
'0:02.244',-6.100
'0:02.245',-6.300
'0:02.246',-6.100
'0:02.247',-5.700
'0:02.248',-5.500
'0:02.249',-5.800
'0:02.250',-6.400
'0:02.251',-7.100
'0:02.252',-7.300
'0:02.253',-6.600
'0:02.254',-5.000
'0:02.255',-3.000
'0:02.256',-1.100
'0:02.257',0.300
'0:02.258',0.900
'0:02.259',1.000
'0:02.260',0.800
'0:02.261',0.400
'0:02.262',0.100
'0:02.263',-0.100
'0:02.264',-0.200
'0:02.265',-0.100
'0:02.266',0.100
'0:02.267',0.100
'0:02.268',-0.100
'0:02.269',-0.600
'0:02.270',-1.100
'0:02.271',-1.200
'0:02.272',-0.700
'0:02.273',0.400
'0:02.274',1.500
'0:02.275',2.300
'0:02.276',2.400
'0:02.277',1.900
'0:02.278',1.300
'0:02.279',1.000
'0:02.280',0.900
'0:02.281',0.900
'0:02.282',0.600
'0:02.283',-0.200
'0:02.284',-1.200
'0:02.285',-2.000
'0:02.286',-2.200
'0:02.287',-1.800
'0:02.288',-1.200
'0:02.289',-1.200
'0:02.290',-1.900
'0:02.291',-3.400
'0:02.292',-4.900
'0:02.293',-5.600
'0:02.294',-5.100
'0:02.295',-3.700
'0:02.296',-2.200
'0:02.297',-1.300
'0:02.298',-1.400
'0:02.299',-2.100
'0:02.300',-2.900
'0:02.301',-3.100
'0:02.302',-2.700
'0:02.303',-2.200
'0:02.304',-2.100
'0:02.305',-2.700
'0:02.306',-3.600
'0:02.307',-4.500
'0:02.308',-4.500
'0:02.309',-3.700
'0:02.310',-2.100
'0:02.311',-0.300
'0:02.312',1.100
'0:02.313',1.900
'0:02.314',1.900
'0:02.315',1.500
'0:02.316',0.800
'0:02.317',0.000
'0:02.318',-0.700
'0:02.319',-1.300
'0:02.320',-1.700
'0:02.321',-1.800
'0:02.322',-1.800
'0:02.323',-1.600
'0:02.324',-1.300
'0:02.325',-1.100
'0:02.326',-1.000
'0:02.327',-1.100
'0:02.328',-1.300
'0:02.329',-1.400
'0:02.330',-1.400
'0:02.331',-1.300
'0:02.332',-1.100
'0:02.333',-0.700
'0:02.334',-0.300
'0:02.335',0.200
'0:02.336',0.500
'0:02.337',0.400
'0:02.338',-0.300
'0:02.339',-1.700
'0:02.340',-3.300
'0:02.341',-4.500
'0:02.342',-4.900
'0:02.343',-4.300
'0:02.344',-3.400
'0:02.345',-2.700
'0:02.346',-3.000
'0:02.347',-4.300
'0:02.348',-5.900
'0:02.349',-7.100
'0:02.350',-7.400
'0:02.351',-6.800
'0:02.352',-5.700
'0:02.353',-4.700
'0:02.354',-4.200
'0:02.355',-4.100
'0:02.356',-4.200
'0:02.357',-4.400
'0:02.358',-4.500
'0:02.359',-4.700
'0:02.360',-4.900
'0:02.361',-4.900
'0:02.362',-4.800
'0:02.363',-4.500
'0:02.364',-4.400
'0:02.365',-4.800
'0:02.366',-5.700
'0:02.367',-6.900
'0:02.368',-8.000
'0:02.369',-8.600
'0:02.370',-8.600
'0:02.371',-8.200
'0:02.372',-7.500
'0:02.373',-7.100
'0:02.374',-7.000
'0:02.375',-7.200
'0:02.376',-7.700
'0:02.377',-8.300
'0:02.378',-8.900
'0:02.379',-9.300
'0:02.380',-9.200
'0:02.381',-8.700
'0:02.382',-8.000
'0:02.383',-7.300
'0:02.384',-7.000
'0:02.385',-7.300
'0:02.386',-7.800
'0:02.387',-8.300
'0:02.388',-8.600
'0:02.389',-8.800
'0:02.390',-9.100
'0:02.391',-9.700
'0:02.392',-10.600
'0:02.393',-11.600
'0:02.394',-12.400
'0:02.395',-12.900
'0:02.396',-13.300
'0:02.397',-13.700
'0:02.398',-14.200
'0:02.399',-14.700
'0:02.400',-14.800
'0:02.401',-14.500
'0:02.402',-14.100
'0:02.403',-13.700
'0:02.404',-13.900
'0:02.405',-14.400
'0:02.406',-15.000
'0:02.407',-15.100
'0:02.408',-14.600
'0:02.409',-13.400
'0:02.410',-12.300
'0:02.411',-11.500
'0:02.412',-11.400
'0:02.413',-11.700
'0:02.414',-12.000
'0:02.415',-12.000
'0:02.416',-11.700
'0:02.417',-11.300
'0:02.418',-11.100
'0:02.419',-11.100
'0:02.420',-11.100
'0:02.421',-11.100
'0:02.422',-10.700
'0:02.423',-10.100
'0:02.424',-9.200
'0:02.425',-8.500
'0:02.426',-8.000
'0:02.427',-7.700
'0:02.428',-7.600
'0:02.429',-7.600
'0:02.430',-7.700
'0:02.431',-7.900
'0:02.432',-8.300
'0:02.433',-9.100
'0:02.434',-9.900
'0:02.435',-10.400
'0:02.436',-10.400
'0:02.437',-9.800
'0:02.438',-8.500
'0:02.439',-7.100
'0:02.440',-6.100
'0:02.441',-5.800
'0:02.442',-6.100
'0:02.443',-6.900
'0:02.444',-7.600
'0:02.445',-8.100
'0:02.446',-8.500
'0:02.447',-8.900
'0:02.448',-9.600
'0:02.449',-10.500
'0:02.450',-11.100
'0:02.451',-11.100
'0:02.452',-10.600
'0:02.453',-9.600
'0:02.454',-8.800
'0:02.455',-8.600
'0:02.456',-9.200
'0:02.457',-10.300
'0:02.458',-11.400
'0:02.459',-11.900
'0:02.460',-11.600
'0:02.461',-10.700
'0:02.462',-9.500
'0:02.463',-8.600
'0:02.464',-8.100
'0:02.465',-8.100
'0:02.466',-8.200
'0:02.467',-8.000
'0:02.468',-7.400
'0:02.469',-6.500
'0:02.470',-5.600
'0:02.471',-4.900
'0:02.472',-4.500
'0:02.473',-4.500
'0:02.474',-4.800
'0:02.475',-5.600
'0:02.476',-6.700
'0:02.477',-7.900
'0:02.478',-8.900
'0:02.479',-9.200
'0:02.480',-8.800
'0:02.481',-7.800
'0:02.482',-6.700
'0:02.483',-6.100
'0:02.484',-6.400
'0:02.485',-7.500
'0:02.486',-8.900
'0:02.487',-10.000
'0:02.488',-10.400
'0:02.489',-10.300
'0:02.490',-10.000
'0:02.491',-10.000
'0:02.492',-10.200
'0:02.493',-10.700
'0:02.494',-11.200
'0:02.495',-11.500
'0:02.496',-11.600
'0:02.497',-11.500
'0:02.498',-10.900
'0:02.499',-9.800
'0:02.500',-8.300
'0:02.501',-6.700
'0:02.502',-5.400
'0:02.503',-4.800
'0:02.504',-4.700
'0:02.505',-4.100
'0:02.506',-2.400
'0:02.507',1.000
'0:02.508',5.800
'0:02.509',10.500
'0:02.510',13.900
'0:02.511',14.800
'0:02.512',13.200
'0:02.513',9.900
'0:02.514',6.000
'0:02.515',2.400
'0:02.516',-0.600
'0:02.517',-3.400
'0:02.518',-6.400
'0:02.519',-9.800
'0:02.520',-13.600
'0:02.521',-17.000
'0:02.522',-19.300
'0:02.523',-20.400
'0:02.524',-20.100
'0:02.525',-18.800
'0:02.526',-17.300
'0:02.527',-15.700
'0:02.528',-14.400
'0:02.529',-13.000
'0:02.530',-11.200
'0:02.531',-8.900
'0:02.532',-6.200
'0:02.533',-3.800
'0:02.534',-2.100
'0:02.535',-1.600
'0:02.536',-2.200
'0:02.537',-3.600
'0:02.538',-4.900
'0:02.539',-5.700
'0:02.540',-5.600
'0:02.541',-4.700
'0:02.542',-3.500
'0:02.543',-2.100
'0:02.544',-1.000
'0:02.545',0.100
'0:02.546',1.000
'0:02.547',1.900
'0:02.548',2.800
'0:02.549',3.400
'0:02.550',3.700
'0:02.551',3.500
'0:02.552',2.800
'0:02.553',1.900
'0:02.554',0.900
'0:02.555',-0.200
'0:02.556',-1.100
'0:02.557',-1.900
'0:02.558',-2.400
'0:02.559',-2.600
'0:02.560',-2.600
'0:02.561',-2.400
'0:02.562',-2.200
'0:02.563',-2.000
'0:02.564',-1.600
'0:02.565',-1.200
'0:02.566',-0.600
'0:02.567',0.100
'0:02.568',0.500
'0:02.569',0.500
'0:02.570',0.000
'0:02.571',-0.800
'0:02.572',-1.800
'0:02.573',-2.800
'0:02.574',-3.500
'0:02.575',-4.000
'0:02.576',-4.300
'0:02.577',-4.500
'0:02.578',-4.800
'0:02.579',-5.300
'0:02.580',-5.900
'0:02.581',-6.400
'0:02.582',-6.600
'0:02.583',-6.500
'0:02.584',-6.000
'0:02.585',-5.500
'0:02.586',-4.800
'0:02.587',-4.000
'0:02.588',-3.100
'0:02.589',-1.900
'0:02.590',-0.800
'0:02.591',0.000
'0:02.592',0.200
'0:02.593',-0.300
'0:02.594',-1.200
'0:02.595',-2.100
'0:02.596',-2.500
'0:02.597',-2.500
'0:02.598',-2.200
'0:02.599',-2.100
'0:02.600',-2.000
'0:02.601',-1.900
'0:02.602',-1.300
'0:02.603',-0.100
'0:02.604',1.300
'0:02.605',2.300
'0:02.606',2.400
'0:02.607',1.300
'0:02.608',-0.700
'0:02.609',-2.800
'0:02.610',-4.400
'0:02.611',-5.400
'0:02.612',-5.800
'0:02.613',-6.100
'0:02.614',-6.300
'0:02.615',-6.400
'0:02.616',-6.000
'0:02.617',-5.000
'0:02.618',-3.500
'0:02.619',-2.200
'0:02.620',-1.500
'0:02.621',-1.700
'0:02.622',-2.500
'0:02.623',-3.200
'0:02.624',-3.300
'0:02.625',-2.800
'0:02.626',-2.000
'0:02.627',-1.600
'0:02.628',-1.900
'0:02.629',-2.900
'0:02.630',-4.100
'0:02.631',-4.900
'0:02.632',-5.100
'0:02.633',-4.900
'0:02.634',-4.600
'0:02.635',-4.600
'0:02.636',-4.700
'0:02.637',-4.600
'0:02.638',-4.100
'0:02.639',-3.000
'0:02.640',-1.800
'0:02.641',-0.900
'0:02.642',-0.500
'0:02.643',-0.500
'0:02.644',-0.500
'0:02.645',-0.300
'0:02.646',0.100
'0:02.647',0.400
'0:02.648',0.300
'0:02.649',-0.400
'0:02.650',-1.500
'0:02.651',-2.500
'0:02.652',-3.000
'0:02.653',-2.900
'0:02.654',-2.200
'0:02.655',-1.300
'0:02.656',-0.500
'0:02.657',0.000
'0:02.658',0.100
'0:02.659',-0.100
'0:02.660',-0.400
'0:02.661',-0.700
'0:02.662',-0.800
'0:02.663',-0.800
'0:02.664',-1.000
'0:02.665',-1.700
'0:02.666',-3.100
'0:02.667',-4.900
'0:02.668',-6.900
'0:02.669',-8.400
'0:02.670',-9.100
'0:02.671',-9.200
'0:02.672',-8.900
'0:02.673',-8.900
'0:02.674',-9.200
'0:02.675',-9.800
'0:02.676',-10.600
'0:02.677',-11.300
'0:02.678',-11.700
'0:02.679',-11.800
'0:02.680',-11.800
'0:02.681',-11.300
'0:02.682',-10.500
'0:02.683',-9.300
'0:02.684',-8.100
'0:02.685',-7.000
'0:02.686',-6.500
'0:02.687',-6.400
'0:02.688',-6.500
'0:02.689',-6.300
'0:02.690',-5.800
'0:02.691',-5.200
'0:02.692',-4.800
'0:02.693',-5.000
'0:02.694',-5.800
'0:02.695',-6.700
'0:02.696',-7.200
'0:02.697',-6.800
'0:02.698',-5.800
'0:02.699',-4.600
'0:02.700',-4.000
'0:02.701',-4.300
'0:02.702',-5.400
'0:02.703',-6.900
'0:02.704',-8.100
'0:02.705',-8.500
'0:02.706',-8.000
'0:02.707',-7.000
'0:02.708',-6.100
'0:02.709',-5.800
'0:02.710',-6.400
'0:02.711',-7.500
'0:02.712',-8.800
'0:02.713',-9.700
'0:02.714',-9.900
'0:02.715',-9.500
'0:02.716',-8.600
'0:02.717',-7.500
'0:02.718',-6.500
'0:02.719',-5.600
'0:02.720',-4.800
'0:02.721',-3.900
'0:02.722',-2.900
'0:02.723',-1.900
'0:02.724',-1.200
'0:02.725',-1.200
'0:02.726',-1.900
'0:02.727',-3.200
'0:02.728',-4.700
'0:02.729',-5.700
'0:02.730',-5.800
'0:02.731',-4.900
'0:02.732',-3.300
'0:02.733',-1.600
'0:02.734',-0.300
'0:02.735',0.300
'0:02.736',0.200
'0:02.737',-0.300
'0:02.738',-0.800
'0:02.739',-1.100
'0:02.740',-1.100
'0:02.741',-1.000
'0:02.742',-0.800
'0:02.743',-0.700
'0:02.744',-0.800
'0:02.745',-1.200
'0:02.746',-1.600
'0:02.747',-2.000
'0:02.748',-2.100
'0:02.749',-1.900
'0:02.750',-1.500
'0:02.751',-1.100
'0:02.752',-0.800
'0:02.753',-0.600
'0:02.754',-0.200
'0:02.755',0.300
'0:02.756',1.100
'0:02.757',1.800
'0:02.758',1.900
'0:02.759',1.100
'0:02.760',-0.700
'0:02.761',-2.900
'0:02.762',-5.000
'0:02.763',-6.200
'0:02.764',-6.400
'0:02.765',-5.900
'0:02.766',-5.100
'0:02.767',-4.600
'0:02.768',-4.600
'0:02.769',-4.800
'0:02.770',-4.900
'0:02.771',-4.600
'0:02.772',-4.100
'0:02.773',-3.400
'0:02.774',-3.100
'0:02.775',-3.100
'0:02.776',-3.400
'0:02.777',-3.700
'0:02.778',-3.900
'0:02.779',-3.900
'0:02.780',-3.900
'0:02.781',-3.900
'0:02.782',-4.100
'0:02.783',-4.300
'0:02.784',-4.400
'0:02.785',-4.400
'0:02.786',-4.300
'0:02.787',-4.400
'0:02.788',-4.700
'0:02.789',-5.100
'0:02.790',-5.700
'0:02.791',-6.200
'0:02.792',-6.600
'0:02.793',-7.000
'0:02.794',-7.300
'0:02.795',-7.500
'0:02.796',-7.500
'0:02.797',-7.300
'0:02.798',-6.600
'0:02.799',-5.700
'0:02.800',-4.700
'0:02.801',-3.900
'0:02.802',-3.300
'0:02.803',-2.800
'0:02.804',-2.200
'0:02.805',-1.500
'0:02.806',-0.700
'0:02.807',0.000
'0:02.808',0.300
'0:02.809',0.000
'0:02.810',-1.000
'0:02.811',-2.300
'0:02.812',-3.700
'0:02.813',-4.900
'0:02.814',-5.800
'0:02.815',-6.300
'0:02.816',-6.500
'0:02.817',-6.600
'0:02.818',-6.300
'0:02.819',-5.700
'0:02.820',-4.900
'0:02.821',-3.700
'0:02.822',-2.600
'0:02.823',-1.600
'0:02.824',-1.000
'0:02.825',-0.700
'0:02.826',-0.600
'0:02.827',-0.500
'0:02.828',-0.300
'0:02.829',-0.100
'0:02.830',-0.100
'0:02.831',-0.600
'0:02.832',-1.400
'0:02.833',-2.300
'0:02.834',-3.000
'0:02.835',-3.300
'0:02.836',-3.100
'0:02.837',-2.600
'0:02.838',-2.100
'0:02.839',-1.500
'0:02.840',-0.600
'0:02.841',0.800
'0:02.842',2.800
'0:02.843',5.400
'0:02.844',8.000
'0:02.845',10.200
'0:02.846',11.700
'0:02.847',12.300
'0:02.848',12.400
'0:02.849',12.300
'0:02.850',12.500
'0:02.851',13.100
'0:02.852',14.000
'0:02.853',15.000
'0:02.854',15.700
'0:02.855',15.800
'0:02.856',15.200
'0:02.857',14.100
'0:02.858',12.600
'0:02.859',11.000
'0:02.860',9.400
'0:02.861',7.900
'0:02.862',6.500
'0:02.863',5.000
'0:02.864',3.600
'0:02.865',2.200
'0:02.866',0.800
'0:02.867',-0.800
'0:02.868',-2.700
'0:02.869',-5.100
'0:02.870',-7.900
'0:02.871',-10.500
'0:02.872',-12.400
'0:02.873',-13.000
'0:02.874',-12.100
'0:02.875',-10.100
'0:02.876',-7.900
'0:02.877',-6.600
'0:02.878',-6.800
'0:02.879',-8.800
'0:02.880',-11.600
'0:02.881',-14.100
'0:02.882',-15.500
'0:02.883',-15.500
'0:02.884',-14.500
'0:02.885',-13.500
'0:02.886',-13.400
'0:02.887',-14.300
'0:02.888',-15.600
'0:02.889',-16.600
'0:02.890',-16.800
'0:02.891',-16.000
'0:02.892',-14.900
'0:02.893',-13.900
'0:02.894',-13.600
'0:02.895',-13.900
'0:02.896',-14.500
'0:02.897',-14.600
'0:02.898',-14.100
'0:02.899',-12.900
'0:02.900',-11.300
'0:02.901',-9.900
'0:02.902',-9.400
'0:02.903',-9.900
'0:02.904',-11.500
'0:02.905',-13.500
'0:02.906',-15.100
'0:02.907',-15.900
'0:02.908',-15.500
'0:02.909',-14.100
'0:02.910',-12.300
'0:02.911',-10.700
'0:02.912',-9.700
'0:02.913',-9.300
'0:02.914',-9.200
'0:02.915',-9.100
'0:02.916',-8.600
'0:02.917',-7.500
'0:02.918',-6.200
'0:02.919',-4.900
'0:02.920',-4.200
'0:02.921',-4.400
'0:02.922',-5.400
'0:02.923',-6.700
'0:02.924',-7.600
'0:02.925',-7.400
'0:02.926',-6.000
'0:02.927',-3.800
'0:02.928',-1.400
'0:02.929',0.200
'0:02.930',0.700
'0:02.931',0.300
'0:02.932',-0.300
'0:02.933',-0.400
'0:02.934',0.300
'0:02.935',1.500
'0:02.936',2.600
'0:02.937',3.000
'0:02.938',2.500
'0:02.939',1.400
'0:02.940',0.300
'0:02.941',-0.400
'0:02.942',-0.600
'0:02.943',-0.600
'0:02.944',-0.600
'0:02.945',-1.000
'0:02.946',-1.400
'0:02.947',-1.400
'0:02.948',-0.900
'0:02.949',-0.100
'0:02.950',0.400
'0:02.951',0.400
'0:02.952',-0.500
'0:02.953',-1.900
'0:02.954',-3.000
'0:02.955',-3.700
'0:02.956',-3.800
'0:02.957',-3.900
'0:02.958',-4.400
'0:02.959',-5.600
'0:02.960',-7.000
'0:02.961',-8.200
'0:02.962',-8.500
'0:02.963',-8.100
'0:02.964',-7.500
'0:02.965',-7.300
'0:02.966',-7.800
'0:02.967',-8.700
'0:02.968',-9.100
'0:02.969',-8.500
'0:02.970',-6.400
'0:02.971',-3.300
'0:02.972',0.300
'0:02.973',4.100
'0:02.974',7.800
'0:02.975',11.500
'0:02.976',15.400
'0:02.977',19.000
'0:02.978',21.800
'0:02.979',23.000
'0:02.980',22.400
'0:02.981',20.200
'0:02.982',17.100
'0:02.983',13.700
'0:02.984',10.500
'0:02.985',7.500
'0:02.986',4.500
'0:02.987',1.200
'0:02.988',-2.300
'0:02.989',-5.600
'0:02.990',-8.400
'0:02.991',-10.000
'0:02.992',-10.200
'0:02.993',-9.000
'0:02.994',-6.800
'0:02.995',-4.100
'0:02.996',-1.600
'0:02.997',0.200
'0:02.998',1.000
'0:02.999',0.800
'0:03.000',0.100
'0:03.001',-1.000
'0:03.002',-1.800
'0:03.003',-2.200
'0:03.004',-1.900
'0:03.005',-0.800
'0:03.006',0.800
'0:03.007',2.400
'0:03.008',3.600
'0:03.009',4.100
'0:03.010',3.800
'0:03.011',3.100
'0:03.012',2.200
'0:03.013',1.300
'0:03.014',0.600
'0:03.015',-0.200
'0:03.016',-0.900
'0:03.017',-1.400
'0:03.018',-1.300
'0:03.019',-0.600
'0:03.020',0.400
'0:03.021',1.100
'0:03.022',1.000
'0:03.023',-0.100
'0:03.024',-1.500
'0:03.025',-2.600
'0:03.026',-3.100
'0:03.027',-3.100
'0:03.028',-3.000
'0:03.029',-3.200
'0:03.030',-3.800
'0:03.031',-4.200
'0:03.032',-4.100
'0:03.033',-3.400
'0:03.034',-2.600
'0:03.035',-2.400
'0:03.036',-3.000
'0:03.037',-4.300
'0:03.038',-5.300
'0:03.039',-5.500
'0:03.040',-4.600
'0:03.041',-3.200
'0:03.042',-2.000
'0:03.043',-1.700
'0:03.044',-2.300
'0:03.045',-3.000
'0:03.046',-3.100
'0:03.047',-2.400
'0:03.048',-1.200
'0:03.049',-0.300
'0:03.050',-0.400
'0:03.051',-1.500
'0:03.052',-3.000
'0:03.053',-4.300
'0:03.054',-4.900
'0:03.055',-5.100
'0:03.056',-5.100
'0:03.057',-5.700
'0:03.058',-6.800
'0:03.059',-7.800
'0:03.060',-8.200
'0:03.061',-7.400
'0:03.062',-5.600
'0:03.063',-3.400
'0:03.064',-2.000
'0:03.065',-1.800
'0:03.066',-2.800
'0:03.067',-4.400
'0:03.068',-5.600
'0:03.069',-5.900
'0:03.070',-5.300
'0:03.071',-4.300
'0:03.072',-3.700
'0:03.073',-3.800
'0:03.074',-4.500
'0:03.075',-5.300
'0:03.076',-5.700
'0:03.077',-5.400
'0:03.078',-4.800
'0:03.079',-4.300
'0:03.080',-4.300
'0:03.081',-4.900
'0:03.082',-5.700
'0:03.083',-6.200
'0:03.084',-6.100
'0:03.085',-5.500
'0:03.086',-4.900
'0:03.087',-4.600
'0:03.088',-4.800
'0:03.089',-5.300
'0:03.090',-5.700
'0:03.091',-5.800
'0:03.092',-5.500
'0:03.093',-5.200
'0:03.094',-5.300
'0:03.095',-5.800
'0:03.096',-6.600
'0:03.097',-7.600
'0:03.098',-8.300
'0:03.099',-8.400
'0:03.100',-7.900
'0:03.101',-7.000
'0:03.102',-5.900
'0:03.103',-4.900
'0:03.104',-4.100
'0:03.105',-3.500
'0:03.106',-3.000
'0:03.107',-2.500
'0:03.108',-2.000
'0:03.109',-1.700
'0:03.110',-1.600
'0:03.111',-1.800
'0:03.112',-2.200
'0:03.113',-2.600
'0:03.114',-2.900
'0:03.115',-3.100
'0:03.116',-3.200
'0:03.117',-3.500
'0:03.118',-3.900
'0:03.119',-4.400
'0:03.120',-4.900
'0:03.121',-5.200
'0:03.122',-5.500
'0:03.123',-5.800
'0:03.124',-6.300
'0:03.125',-6.800
'0:03.126',-7.200
'0:03.127',-7.100
'0:03.128',-6.700
'0:03.129',-5.900
'0:03.130',-5.000
'0:03.131',-4.100
'0:03.132',-3.400
'0:03.133',-2.600
'0:03.134',-1.700
'0:03.135',-1.200
'0:03.136',-1.100
'0:03.137',-1.600
'0:03.138',-2.600
'0:03.139',-3.500
'0:03.140',-3.800
'0:03.141',-3.300
'0:03.142',-2.200
'0:03.143',-1.100
'0:03.144',-0.200
'0:03.145',0.400
'0:03.146',0.900
'0:03.147',1.500
'0:03.148',1.900
'0:03.149',1.700
'0:03.150',0.500
'0:03.151',-1.300
'0:03.152',-3.200
'0:03.153',-4.300
'0:03.154',-4.100
'0:03.155',-2.900
'0:03.156',-1.300
'0:03.157',-0.300
'0:03.158',-0.100
'0:03.159',-0.700
'0:03.160',-1.300
'0:03.161',-1.500
'0:03.162',-1.100
'0:03.163',-0.600
'0:03.164',-0.500
'0:03.165',-0.900
'0:03.166',-1.600
'0:03.167',-2.300
'0:03.168',-2.600
'0:03.169',-2.200
'0:03.170',-1.200
'0:03.171',-0.100
'0:03.172',0.900
'0:03.173',1.700
'0:03.174',2.200
'0:03.175',2.600
'0:03.176',3.000
'0:03.177',3.400
'0:03.178',4.000
'0:03.179',4.600
'0:03.180',4.900
'0:03.181',4.700
'0:03.182',4.000
'0:03.183',3.000
'0:03.184',2.300
'0:03.185',2.100
'0:03.186',2.800
'0:03.187',4.000
'0:03.188',5.100
'0:03.189',5.700
'0:03.190',5.300
'0:03.191',4.100
'0:03.192',2.500
'0:03.193',1.200
'0:03.194',0.600
'0:03.195',0.600
'0:03.196',1.000
'0:03.197',1.500
'0:03.198',1.900
'0:03.199',2.100
'0:03.200',2.300
'0:03.201',2.500
'0:03.202',2.700
'0:03.203',2.800
'0:03.204',2.600
'0:03.205',2.300
'0:03.206',1.900
'0:03.207',1.800
'0:03.208',2.200
'0:03.209',3.000
'0:03.210',4.100
'0:03.211',5.100
'0:03.212',5.700
'0:03.213',6.000
'0:03.214',6.000
'0:03.215',5.900
'0:03.216',5.700
'0:03.217',5.400
'0:03.218',4.900
'0:03.219',4.300
'0:03.220',3.800
'0:03.221',3.800
'0:03.222',4.500
'0:03.223',5.800
'0:03.224',7.300
'0:03.225',8.400
'0:03.226',8.900
'0:03.227',8.700
'0:03.228',8.000
'0:03.229',7.100
'0:03.230',6.200
'0:03.231',5.300
'0:03.232',4.400
'0:03.233',3.300
'0:03.234',2.100
'0:03.235',0.900
'0:03.236',-0.300
'0:03.237',-1.400
'0:03.238',-2.200
'0:03.239',-2.600
'0:03.240',-2.500
'0:03.241',-1.900
'0:03.242',-1.100
'0:03.243',-0.300
'0:03.244',0.000
'0:03.245',-0.400
'0:03.246',-1.400
'0:03.247',-2.700
'0:03.248',-3.900
'0:03.249',-4.600
'0:03.250',-4.800
'0:03.251',-4.700
'0:03.252',-4.700
'0:03.253',-5.000
'0:03.254',-5.500
'0:03.255',-6.000
'0:03.256',-6.100
'0:03.257',-5.800
'0:03.258',-5.100
'0:03.259',-4.400
'0:03.260',-3.900
'0:03.261',-3.600
'0:03.262',-3.600
'0:03.263',-3.600
'0:03.264',-3.500
'0:03.265',-3.300
'0:03.266',-3.300
'0:03.267',-3.400
'0:03.268',-3.700
'0:03.269',-4.100
'0:03.270',-4.300
'0:03.271',-4.400
'0:03.272',-4.500
'0:03.273',-4.700
'0:03.274',-5.100
'0:03.275',-5.800
'0:03.276',-6.400
'0:03.277',-6.800
'0:03.278',-6.700
'0:03.279',-6.100
'0:03.280',-5.300
'0:03.281',-4.400
'0:03.282',-3.700
'0:03.283',-3.200
'0:03.284',-2.600
'0:03.285',-2.000
'0:03.286',-1.400
'0:03.287',-0.900
'0:03.288',-0.500
'0:03.289',-0.300
'0:03.290',-0.100
'0:03.291',0.400
'0:03.292',1.200
'0:03.293',2.000
'0:03.294',2.800
'0:03.295',3.100
'0:03.296',2.900
'0:03.297',2.500
'0:03.298',2.000
'0:03.299',1.800
'0:03.300',1.700
'0:03.301',1.900
'0:03.302',2.000
'0:03.303',2.000
'0:03.304',1.800
'0:03.305',1.600
'0:03.306',1.400
'0:03.307',1.300
'0:03.308',1.300
'0:03.309',1.500
'0:03.310',1.600
'0:03.311',1.400
'0:03.312',0.800
'0:03.313',-0.200
'0:03.314',-1.600
'0:03.315',-2.700
'0:03.316',-3.100
'0:03.317',-2.300
'0:03.318',-0.400
'0:03.319',2.200
'0:03.320',4.500
'0:03.321',6.000
'0:03.322',6.400
'0:03.323',5.900
'0:03.324',4.900
'0:03.325',4.100
'0:03.326',3.600
'0:03.327',3.500
'0:03.328',3.400
'0:03.329',3.200
'0:03.330',2.800
'0:03.331',2.500
'0:03.332',2.400
'0:03.333',2.600
'0:03.334',3.000
'0:03.335',3.400
'0:03.336',3.600
'0:03.337',3.500
'0:03.338',3.100
'0:03.339',2.300
'0:03.340',1.300
'0:03.341',0.000
'0:03.342',-1.600
'0:03.343',-3.400
'0:03.344',-5.000
'0:03.345',-6.100
'0:03.346',-6.500
'0:03.347',-6.200
'0:03.348',-5.500
'0:03.349',-4.800
'0:03.350',-4.300
'0:03.351',-3.900
'0:03.352',-3.700
'0:03.353',-3.300
'0:03.354',-2.700
'0:03.355',-1.900
'0:03.356',-1.200
'0:03.357',-0.800
'0:03.358',-0.700
'0:03.359',-0.900
'0:03.360',-1.200
'0:03.361',-1.200
'0:03.362',-0.900
'0:03.363',-0.300
'0:03.364',0.600
'0:03.365',1.300
'0:03.366',1.700
'0:03.367',1.500
'0:03.368',0.800
'0:03.369',-0.100
'0:03.370',-1.000
'0:03.371',-1.600
'0:03.372',-1.800
'0:03.373',-1.600
'0:03.374',-1.300
'0:03.375',-0.700
'0:03.376',-0.300
'0:03.377',0.100
'0:03.378',0.200
'0:03.379',0.100
'0:03.380',-0.200
'0:03.381',-0.500
'0:03.382',-0.700
'0:03.383',-0.600
'0:03.384',-0.200
'0:03.385',0.500
'0:03.386',1.500
'0:03.387',2.500
'0:03.388',3.300
'0:03.389',3.700
'0:03.390',3.500
'0:03.391',2.800
'0:03.392',1.600
'0:03.393',0.200
'0:03.394',-1.200
'0:03.395',-2.200
'0:03.396',-2.800
'0:03.397',-3.000
'0:03.398',-2.800
'0:03.399',-2.500
'0:03.400',-2.100
'0:03.401',-1.800
'0:03.402',-1.600
'0:03.403',-1.500
'0:03.404',-1.500
'0:03.405',-1.300
'0:03.406',-0.900
'0:03.407',-0.400
'0:03.408',0.200
'0:03.409',0.900
'0:03.410',1.500
'0:03.411',2.100
'0:03.412',2.700
'0:03.413',3.100
'0:03.414',3.300
'0:03.415',3.200
'0:03.416',2.800
'0:03.417',2.400
'0:03.418',2.100
'0:03.419',2.200
'0:03.420',2.600
'0:03.421',3.000
'0:03.422',3.300
'0:03.423',3.300
'0:03.424',3.100
'0:03.425',2.600
'0:03.426',1.900
'0:03.427',0.900
'0:03.428',-0.400
'0:03.429',-1.900
'0:03.430',-3.000
'0:03.431',-3.500
'0:03.432',-3.300
'0:03.433',-2.400
'0:03.434',-1.200
'0:03.435',0.100
'0:03.436',1.500
'0:03.437',3.100
'0:03.438',4.900
'0:03.439',6.800
'0:03.440',8.400
'0:03.441',9.400
'0:03.442',10.200
'0:03.443',11.400
'0:03.444',14.000
'0:03.445',18.100
'0:03.446',23.000
'0:03.447',27.500
'0:03.448',30.100
'0:03.449',30.300
'0:03.450',28.400
'0:03.451',25.300
'0:03.452',22.200
'0:03.453',19.500
'0:03.454',16.600
'0:03.455',13.000
'0:03.456',8.500
'0:03.457',3.400
'0:03.458',-1.100
'0:03.459',-4.000
'0:03.460',-4.600
'0:03.461',-3.500
'0:03.462',-1.800
'0:03.463',-0.400
'0:03.464',0.200
'0:03.465',0.000
'0:03.466',-0.300
'0:03.467',-0.100
'0:03.468',0.900
'0:03.469',2.400
'0:03.470',3.700
'0:03.471',4.400
'0:03.472',4.400
'0:03.473',3.700
'0:03.474',2.800
'0:03.475',1.900
'0:03.476',1.400
'0:03.477',1.300
'0:03.478',1.500
'0:03.479',1.900
'0:03.480',2.300
'0:03.481',2.800
'0:03.482',3.200
'0:03.483',3.500
'0:03.484',3.700
'0:03.485',3.600
'0:03.486',3.300
'0:03.487',2.700
'0:03.488',2.000
'0:03.489',1.400
'0:03.490',1.000
'0:03.491',0.900
'0:03.492',1.000
'0:03.493',0.900
'0:03.494',0.700
'0:03.495',0.100
'0:03.496',-0.600
'0:03.497',-1.100
'0:03.498',-1.300
'0:03.499',-1.000
'0:03.500',-0.300
'0:03.501',0.300
'0:03.502',0.500
'0:03.503',0.200
'0:03.504',-0.500
'0:03.505',-1.200
'0:03.506',-1.500
'0:03.507',-1.100
'0:03.508',-0.100
'0:03.509',1.100
'0:03.510',1.900
'0:03.511',2.100
'0:03.512',1.400
'0:03.513',0.200
'0:03.514',-0.900
'0:03.515',-1.600
'0:03.516',-1.600
'0:03.517',-1.100
'0:03.518',-0.400
'0:03.519',0.000
'0:03.520',0.100
'0:03.521',-0.100
'0:03.522',-0.300
'0:03.523',0.000
'0:03.524',0.700
'0:03.525',1.800
'0:03.526',3.000
'0:03.527',4.000
'0:03.528',4.700
'0:03.529',5.200
'0:03.530',5.400
'0:03.531',5.500
'0:03.532',5.500
'0:03.533',5.600
'0:03.534',5.700
'0:03.535',5.800
'0:03.536',6.000
'0:03.537',6.100
'0:03.538',5.800
'0:03.539',5.100
'0:03.540',4.300
'0:03.541',3.700
'0:03.542',3.500
'0:03.543',4.000
'0:03.544',4.900
'0:03.545',6.100
'0:03.546',7.400
'0:03.547',8.900
'0:03.548',10.700
'0:03.549',12.900
'0:03.550',15.300
'0:03.551',17.400
'0:03.552',19.000
'0:03.553',19.700
'0:03.554',20.000
'0:03.555',20.200
'0:03.556',20.800
'0:03.557',21.900
'0:03.558',23.600
'0:03.559',25.100
'0:03.560',26.000
'0:03.561',26.100
'0:03.562',25.100
'0:03.563',23.400
'0:03.564',21.300
'0:03.565',19.100
'0:03.566',17.000
'0:03.567',15.200
'0:03.568',13.700
'0:03.569',12.400
'0:03.570',11.400
'0:03.571',10.500
'0:03.572',9.500
'0:03.573',8.400
'0:03.574',6.900
'0:03.575',5.200
'0:03.576',3.200
'0:03.577',1.100
'0:03.578',-1.000
'0:03.579',-3.000
'0:03.580',-4.800
'0:03.581',-6.500
'0:03.582',-8.100
'0:03.583',-9.500
'0:03.584',-10.700
'0:03.585',-11.900
'0:03.586',-12.900
'0:03.587',-13.600
'0:03.588',-14.100
'0:03.589',-14.300
'0:03.590',-14.300
'0:03.591',-14.000
'0:03.592',-13.800
'0:03.593',-13.900
'0:03.594',-14.200
'0:03.595',-14.500
'0:03.596',-14.600
'0:03.597',-13.900
'0:03.598',-12.500
'0:03.599',-10.400
'0:03.600',-8.100
'0:03.601',-6.200
'0:03.602',-5.200
'0:03.603',-5.000
'0:03.604',-5.400
'0:03.605',-5.900
'0:03.606',-6.200
'0:03.607',-6.200
'0:03.608',-6.000
'0:03.609',-5.700
'0:03.610',-5.300
'0:03.611',-4.600
'0:03.612',-3.500
'0:03.613',-2.100
'0:03.614',-0.700
'0:03.615',0.500
'0:03.616',1.200
'0:03.617',1.600
'0:03.618',1.900
'0:03.619',2.200
'0:03.620',2.600
'0:03.621',3.200
'0:03.622',3.800
'0:03.623',4.500
'0:03.624',5.400
'0:03.625',6.400
'0:03.626',7.500
'0:03.627',8.500
'0:03.628',9.000
'0:03.629',9.000
'0:03.630',8.600
'0:03.631',8.000
'0:03.632',7.600
'0:03.633',7.700
'0:03.634',8.300
'0:03.635',9.000
'0:03.636',9.500
'0:03.637',9.300
'0:03.638',8.500
'0:03.639',7.400
'0:03.640',6.400
'0:03.641',6.000
'0:03.642',6.400
'0:03.643',7.200
'0:03.644',7.900
'0:03.645',8.200
'0:03.646',8.100
'0:03.647',7.900
'0:03.648',7.800
'0:03.649',8.000
'0:03.650',8.400
'0:03.651',8.600
'0:03.652',8.500
'0:03.653',8.100
'0:03.654',7.700
'0:03.655',7.500
'0:03.656',7.600
'0:03.657',8.100
'0:03.658',8.800
'0:03.659',9.700
'0:03.660',10.700
'0:03.661',11.400
'0:03.662',11.600
'0:03.663',10.700
'0:03.664',8.800
'0:03.665',6.300
'0:03.666',4.000
'0:03.667',2.700
'0:03.668',2.700
'0:03.669',3.800
'0:03.670',5.100
'0:03.671',6.000
'0:03.672',6.100
'0:03.673',5.800
'0:03.674',5.300
'0:03.675',5.100
'0:03.676',5.200
'0:03.677',5.400
'0:03.678',5.500
'0:03.679',5.500
'0:03.680',5.600
'0:03.681',5.900
'0:03.682',6.400
'0:03.683',7.100
'0:03.684',7.800
'0:03.685',8.400
'0:03.686',8.700
'0:03.687',8.900
'0:03.688',8.900
'0:03.689',8.700
'0:03.690',8.200
'0:03.691',7.600
'0:03.692',7.200
'0:03.693',7.200
'0:03.694',8.000
'0:03.695',9.400
'0:03.696',11.000
'0:03.697',12.300
'0:03.698',12.700
'0:03.699',12.200
'0:03.700',11.100
'0:03.701',9.900
'0:03.702',9.100
'0:03.703',8.800
'0:03.704',8.800
'0:03.705',8.900
'0:03.706',8.900
'0:03.707',8.800
'0:03.708',9.000
'0:03.709',9.400
'0:03.710',10.200
'0:03.711',11.000
'0:03.712',11.400
'0:03.713',11.200
'0:03.714',10.600
'0:03.715',9.800
'0:03.716',9.300
'0:03.717',9.200
'0:03.718',9.300
'0:03.719',9.400
'0:03.720',9.200
'0:03.721',8.800
'0:03.722',8.600
'0:03.723',9.000
'0:03.724',10.100
'0:03.725',11.800
'0:03.726',13.500
'0:03.727',14.500
'0:03.728',14.400
'0:03.729',13.100
'0:03.730',11.100
'0:03.731',9.100
'0:03.732',7.800
'0:03.733',7.500
'0:03.734',8.200
'0:03.735',9.200
'0:03.736',9.700
'0:03.737',9.300
'0:03.738',7.900
'0:03.739',5.800
'0:03.740',3.900
'0:03.741',2.700
'0:03.742',2.600
'0:03.743',3.300
'0:03.744',4.000
'0:03.745',4.200
'0:03.746',3.500
'0:03.747',2.000
'0:03.748',0.300
'0:03.749',-0.900
'0:03.750',-1.200
'0:03.751',-0.500
'0:03.752',1.000
'0:03.753',2.700
'0:03.754',4.200
'0:03.755',5.300
'0:03.756',5.800
'0:03.757',5.900
'0:03.758',5.900
'0:03.759',5.900
'0:03.760',5.900
'0:03.761',6.100
'0:03.762',6.400
'0:03.763',6.400
'0:03.764',6.100
'0:03.765',5.300
'0:03.766',4.100
'0:03.767',2.800
'0:03.768',2.000
'0:03.769',1.900
'0:03.770',2.600
'0:03.771',3.700
'0:03.772',4.300
'0:03.773',4.100
'0:03.774',3.000
'0:03.775',1.500
'0:03.776',0.300
'0:03.777',0.100
'0:03.778',0.800
'0:03.779',2.100
'0:03.780',3.400
'0:03.781',4.100
'0:03.782',4.300
'0:03.783',4.100
'0:03.784',4.100
'0:03.785',4.300
'0:03.786',4.600
'0:03.787',4.700
'0:03.788',4.300
'0:03.789',3.400
'0:03.790',2.200
'0:03.791',1.200
'0:03.792',0.500
'0:03.793',0.300
'0:03.794',0.500
'0:03.795',0.700
'0:03.796',0.800
'0:03.797',0.900
'0:03.798',1.000
'0:03.799',1.000
'0:03.800',1.100
'0:03.801',1.100
'0:03.802',1.200
'0:03.803',1.200
'0:03.804',1.300
'0:03.805',1.400
'0:03.806',1.400
'0:03.807',1.400
'0:03.808',1.600
'0:03.809',2.000
'0:03.810',2.600
'0:03.811',3.500
'0:03.812',4.400
'0:03.813',5.100
'0:03.814',5.500
'0:03.815',5.300
'0:03.816',4.500
'0:03.817',3.300
'0:03.818',1.800
'0:03.819',0.400
'0:03.820',-0.400
'0:03.821',-0.500
'0:03.822',0.300
'0:03.823',1.300
'0:03.824',2.200
'0:03.825',2.500
'0:03.826',2.200
'0:03.827',1.600
'0:03.828',1.300
'0:03.829',1.700
'0:03.830',2.700
'0:03.831',4.000
'0:03.832',5.100
'0:03.833',5.500
'0:03.834',5.000
'0:03.835',4.000
'0:03.836',3.100
'0:03.837',2.700
'0:03.838',3.100
'0:03.839',4.300
'0:03.840',5.600
'0:03.841',6.400
'0:03.842',6.500
'0:03.843',5.800
'0:03.844',4.800
'0:03.845',4.200
'0:03.846',4.500
'0:03.847',5.600
'0:03.848',7.200
'0:03.849',8.600
'0:03.850',9.200
'0:03.851',8.900
'0:03.852',8.100
'0:03.853',7.200
'0:03.854',6.500
'0:03.855',6.200
'0:03.856',6.200
'0:03.857',6.100
'0:03.858',6.100
'0:03.859',6.200
'0:03.860',6.500
'0:03.861',7.200
'0:03.862',8.000
'0:03.863',8.700
'0:03.864',9.000
'0:03.865',8.700
'0:03.866',8.100
'0:03.867',7.300
'0:03.868',6.900
'0:03.869',7.100
'0:03.870',7.900
'0:03.871',8.700
'0:03.872',9.200
'0:03.873',8.900
'0:03.874',8.000
'0:03.875',6.800
'0:03.876',5.800
'0:03.877',5.500
'0:03.878',5.900
'0:03.879',6.600
'0:03.880',7.100
'0:03.881',7.000
'0:03.882',6.300
'0:03.883',4.900
'0:03.884',3.200
'0:03.885',1.400
'0:03.886',-0.200
'0:03.887',-1.300
'0:03.888',-1.700
'0:03.889',-1.300
'0:03.890',-0.300
'0:03.891',1.000
'0:03.892',1.800
'0:03.893',2.000
'0:03.894',1.400
'0:03.895',0.600
'0:03.896',0.000
'0:03.897',0.100
'0:03.898',0.700
'0:03.899',1.300
'0:03.900',1.600
'0:03.901',1.400
'0:03.902',1.100
'0:03.903',1.100
'0:03.904',1.900
'0:03.905',3.200
'0:03.906',4.600
'0:03.907',5.600
'0:03.908',6.100
'0:03.909',6.400
'0:03.910',7.300
'0:03.911',9.400
'0:03.912',13.000
'0:03.913',17.800
'0:03.914',22.800
'0:03.915',27.200
'0:03.916',30.200
'0:03.917',31.500
'0:03.918',31.200
'0:03.919',29.500
'0:03.920',26.800
'0:03.921',23.400
'0:03.922',19.600
'0:03.923',15.600
'0:03.924',11.500
'0:03.925',7.600
'0:03.926',3.900
'0:03.927',0.900
'0:03.928',-1.200
'0:03.929',-2.100
'0:03.930',-1.900
'0:03.931',-0.800
'0:03.932',0.600
'0:03.933',1.900
'0:03.934',3.100
'0:03.935',4.100
'0:03.936',5.200
'0:03.937',6.400
'0:03.938',7.400
'0:03.939',8.100
'0:03.940',8.400
'0:03.941',8.300
'0:03.942',8.000
'0:03.943',7.800
'0:03.944',7.700
'0:03.945',7.500
'0:03.946',7.000
'0:03.947',6.400
'0:03.948',5.700
'0:03.949',5.400
'0:03.950',5.500
'0:03.951',6.000
'0:03.952',6.400
'0:03.953',6.600
'0:03.954',6.500
'0:03.955',6.100
'0:03.956',5.700
'0:03.957',5.500
'0:03.958',5.700
'0:03.959',6.000
'0:03.960',6.200
'0:03.961',6.400
'0:03.962',6.300
'0:03.963',6.200
'0:03.964',6.200
'0:03.965',6.400
'0:03.966',6.900
'0:03.967',7.700
'0:03.968',8.500
'0:03.969',9.100
'0:03.970',9.400
'0:03.971',9.400
'0:03.972',9.000
'0:03.973',8.500
'0:03.974',8.100
'0:03.975',8.000
'0:03.976',8.100
'0:03.977',8.400
'0:03.978',8.500
'0:03.979',8.600
'0:03.980',8.600
'0:03.981',8.800
'0:03.982',9.100
'0:03.983',9.600
'0:03.984',10.000
'0:03.985',10.200
'0:03.986',10.100
'0:03.987',9.800
'0:03.988',9.700
'0:03.989',9.900
'0:03.990',10.500
'0:03.991',10.900
'0:03.992',10.900
'0:03.993',10.200
'0:03.994',9.100
'0:03.995',8.200
'0:03.996',7.900
'0:03.997',8.400
'0:03.998',9.300
'0:03.999',10.200
'0:04.000',10.600
'0:04.001',10.500
'0:04.002',10.300
'0:04.003',10.300
'0:04.004',10.600
'0:04.005',11.100
'0:04.006',11.400
'0:04.007',11.000
'0:04.008',10.100
'0:04.009',8.900
'0:04.010',8.000
'0:04.011',7.600
'0:04.012',7.800
'0:04.013',8.300
'0:04.014',8.800
'0:04.015',9.100
'0:04.016',9.300
'0:04.017',9.400
'0:04.018',9.700
'0:04.019',10.200
'0:04.020',10.700
'0:04.021',11.100
'0:04.022',11.200
'0:04.023',10.800
'0:04.024',10.200
'0:04.025',9.500
'0:04.026',8.900
'0:04.027',8.300
'0:04.028',8.000
'0:04.029',7.800
'0:04.030',7.800
'0:04.031',7.900
'0:04.032',8.100
'0:04.033',8.200
'0:04.034',8.200
'0:04.035',7.800
'0:04.036',7.300
'0:04.037',6.600
'0:04.038',6.000
'0:04.039',5.600
'0:04.040',5.500
'0:04.041',6.000
'0:04.042',6.800
'0:04.043',8.100
'0:04.044',9.400
'0:04.045',10.600
'0:04.046',11.300
'0:04.047',11.900
'0:04.048',12.400
'0:04.049',13.000
'0:04.050',13.700
'0:04.051',14.400
'0:04.052',14.700
'0:04.053',14.700
'0:04.054',14.500
'0:04.055',14.400
'0:04.056',14.600
'0:04.057',15.100
'0:04.058',15.400
'0:04.059',15.600
'0:04.060',15.600
'0:04.061',15.900
'0:04.062',16.600
'0:04.063',17.800
'0:04.064',19.100
'0:04.065',19.800
'0:04.066',19.800
'0:04.067',19.300
'0:04.068',18.600
'0:04.069',18.200
'0:04.070',17.800
'0:04.071',17.400
'0:04.072',16.700
'0:04.073',15.800
'0:04.074',15.200
'0:04.075',15.100
'0:04.076',15.800
'0:04.077',16.700
'0:04.078',17.300
'0:04.079',17.100
'0:04.080',16.100
'0:04.081',14.600
'0:04.082',13.400
'0:04.083',12.800
'0:04.084',12.700
'0:04.085',12.700
'0:04.086',12.400
'0:04.087',11.600
'0:04.088',10.500
'0:04.089',9.500
'0:04.090',8.900
'0:04.091',8.700
'0:04.092',8.700
'0:04.093',8.600
'0:04.094',8.200
'0:04.095',7.600
'0:04.096',7.000
'0:04.097',6.600
'0:04.098',6.600
'0:04.099',6.800
'0:04.100',6.900
'0:04.101',6.900
'0:04.102',6.800
'0:04.103',7.000
'0:04.104',7.600
'0:04.105',8.700
'0:04.106',10.100
'0:04.107',11.400
'0:04.108',12.300
'0:04.109',12.500
'0:04.110',12.200
'0:04.111',11.500
'0:04.112',10.700
'0:04.113',9.900
'0:04.114',9.100
'0:04.115',8.100
'0:04.116',7.000
'0:04.117',6.100
'0:04.118',5.500
'0:04.119',5.500
'0:04.120',6.000
'0:04.121',6.600
'0:04.122',6.800
'0:04.123',6.600
'0:04.124',6.000
'0:04.125',5.300
'0:04.126',4.900
'0:04.127',4.800
'0:04.128',4.800
'0:04.129',4.600
'0:04.130',4.100
'0:04.131',3.500
'0:04.132',3.000
'0:04.133',2.900
'0:04.134',3.100
'0:04.135',3.500
'0:04.136',3.800
'0:04.137',3.900
'0:04.138',4.100
'0:04.139',4.300
'0:04.140',4.700
'0:04.141',4.900
'0:04.142',4.800
'0:04.143',4.100
'0:04.144',2.900
'0:04.145',1.500
'0:04.146',0.300
'0:04.147',-0.500
'0:04.148',-0.800
'0:04.149',-0.800
'0:04.150',-0.600
'0:04.151',-0.200
'0:04.152',0.100
'0:04.153',0.700
'0:04.154',1.200
'0:04.155',1.700
'0:04.156',1.900
'0:04.157',1.800
'0:04.158',1.400
'0:04.159',0.900
'0:04.160',0.500
'0:04.161',0.400
'0:04.162',0.700
'0:04.163',1.100
'0:04.164',1.500
'0:04.165',1.800
'0:04.166',1.800
'0:04.167',1.600
'0:04.168',1.300
'0:04.169',1.200
'0:04.170',1.200
'0:04.171',1.500
'0:04.172',2.000
'0:04.173',2.400
'0:04.174',2.800
'0:04.175',2.900
'0:04.176',2.700
'0:04.177',2.500
'0:04.178',2.300
'0:04.179',2.100
'0:04.180',2.000
'0:04.181',1.800
'0:04.182',1.700
'0:04.183',1.400
'0:04.184',1.300
'0:04.185',1.100
'0:04.186',1.100
'0:04.187',1.200
'0:04.188',1.500
'0:04.189',2.000
'0:04.190',2.600
'0:04.191',3.100
'0:04.192',3.200
'0:04.193',2.700
'0:04.194',1.700
'0:04.195',0.500
'0:04.196',-0.400
'0:04.197',-0.600
'0:04.198',-0.300
'0:04.199',0.200
'0:04.200',0.400
'0:04.201',0.000
'0:04.202',-0.500
'0:04.203',-0.800
'0:04.204',-0.600
'0:04.205',0.300
'0:04.206',1.200
'0:04.207',1.800
'0:04.208',1.500
'0:04.209',0.400
'0:04.210',-1.000
'0:04.211',-2.200
'0:04.212',-2.600
'0:04.213',-2.300
'0:04.214',-1.300
'0:04.215',-0.100
'0:04.216',0.800
'0:04.217',1.300
'0:04.218',1.200
'0:04.219',0.800
'0:04.220',0.300
'0:04.221',0.000
'0:04.222',0.100
'0:04.223',0.500
'0:04.224',1.000
'0:04.225',1.500
'0:04.226',1.800
'0:04.227',1.800
'0:04.228',1.700
'0:04.229',1.400
'0:04.230',0.900
'0:04.231',0.300
'0:04.232',-0.300
'0:04.233',-0.700
'0:04.234',-0.600
'0:04.235',-0.200
'0:04.236',0.300
'0:04.237',0.400
'0:04.238',0.100
'0:04.239',-0.700
'0:04.240',-1.500
'0:04.241',-1.900
'0:04.242',-1.700
'0:04.243',-1.200
'0:04.244',-0.700
'0:04.245',-0.500
'0:04.246',-0.400
'0:04.247',-0.100
'0:04.248',0.900
'0:04.249',2.700
'0:04.250',4.900
'0:04.251',7.100
'0:04.252',8.900
'0:04.253',10.300
'0:04.254',11.700
'0:04.255',13.500
'0:04.256',15.700
'0:04.257',18.200
'0:04.258',20.200
'0:04.259',21.300
'0:04.260',21.100
'0:04.261',20.000
'0:04.262',18.300
'0:04.263',16.900
'0:04.264',16.100
'0:04.265',15.800
'0:04.266',15.800
'0:04.267',15.700
'0:04.268',15.200
'0:04.269',14.200
'0:04.270',12.900
'0:04.271',11.500
'0:04.272',10.100
'0:04.273',8.900
'0:04.274',7.700
'0:04.275',6.200
'0:04.276',4.300
'0:04.277',2.000
'0:04.278',-0.600
'0:04.279',-3.100
'0:04.280',-4.900
'0:04.281',-5.900
'0:04.282',-6.100
'0:04.283',-6.000
'0:04.284',-6.100
'0:04.285',-6.800
'0:04.286',-7.900
'0:04.287',-9.000
'0:04.288',-9.800
'0:04.289',-10.000
'0:04.290',-9.900
'0:04.291',-10.000
'0:04.292',-10.500
'0:04.293',-11.400
'0:04.294',-12.400
'0:04.295',-13.100
'0:04.296',-13.400
'0:04.297',-13.200
'0:04.298',-12.600
'0:04.299',-11.800
'0:04.300',-10.800
'0:04.301',-9.700
'0:04.302',-8.800
'0:04.303',-8.200
'0:04.304',-8.300
'0:04.305',-9.300
'0:04.306',-11.000
'0:04.307',-12.800
'0:04.308',-14.100
'0:04.309',-14.400
'0:04.310',-13.700
'0:04.311',-12.300
'0:04.312',-10.800
'0:04.313',-9.800
'0:04.314',-9.600
'0:04.315',-10.000
'0:04.316',-10.400
'0:04.317',-10.400
'0:04.318',-9.600
'0:04.319',-8.100
'0:04.320',-6.300
'0:04.321',-4.800
'0:04.322',-3.800
'0:04.323',-3.100
'0:04.324',-2.500
'0:04.325',-1.500
'0:04.326',-0.200
'0:04.327',0.800
'0:04.328',1.100
'0:04.329',0.500
'0:04.330',-0.900
'0:04.331',-2.400
'0:04.332',-3.400
'0:04.333',-3.400
'0:04.334',-2.600
'0:04.335',-1.600
'0:04.336',-0.900
'0:04.337',-1.200
'0:04.338',-2.600
'0:04.339',-4.600
'0:04.340',-6.700
'0:04.341',-8.200
'0:04.342',-8.700
'0:04.343',-8.100
'0:04.344',-6.800
'0:04.345',-5.200
'0:04.346',-4.000
'0:04.347',-3.400
'0:04.348',-3.600
'0:04.349',-4.200
'0:04.350',-5.000
'0:04.351',-5.600
'0:04.352',-5.800
'0:04.353',-5.600
'0:04.354',-5.200
'0:04.355',-4.700
'0:04.356',-4.100
'0:04.357',-3.200
'0:04.358',-2.100
'0:04.359',-0.900
'0:04.360',0.100
'0:04.361',0.600
'0:04.362',0.400
'0:04.363',-0.300
'0:04.364',-1.000
'0:04.365',-1.700
'0:04.366',-2.100
'0:04.367',-2.500
'0:04.368',-2.900
'0:04.369',-3.400
'0:04.370',-3.800
'0:04.371',-3.900
'0:04.372',-3.500
'0:04.373',-2.500
'0:04.374',-1.000
'0:04.375',0.700
'0:04.376',2.500
'0:04.377',4.300
'0:04.378',6.200
'0:04.379',8.400
'0:04.380',11.000
'0:04.381',14.300
'0:04.382',18.200
'0:04.383',22.600
'0:04.384',27.000
'0:04.385',30.700
'0:04.386',32.901
'0:04.387',33.001
'0:04.388',31.200
'0:04.389',27.700
'0:04.390',23.300
'0:04.391',18.800
'0:04.392',14.500
'0:04.393',10.500
'0:04.394',6.700
'0:04.395',3.100
'0:04.396',-0.200
'0:04.397',-2.900
'0:04.398',-4.600
'0:04.399',-5.300
'0:04.400',-5.100
'0:04.401',-4.300
'0:04.402',-3.400
'0:04.403',-2.400
'0:04.404',-1.500
'0:04.405',-0.600
'0:04.406',0.200
'0:04.407',0.900
'0:04.408',1.300
'0:04.409',1.300
'0:04.410',0.800
'0:04.411',0.200
'0:04.412',-0.400
'0:04.413',-0.700
'0:04.414',-0.500
'0:04.415',0.100
'0:04.416',1.100
'0:04.417',2.300
'0:04.418',3.400
'0:04.419',4.400
'0:04.420',5.000
'0:04.421',5.300
'0:04.422',5.500
'0:04.423',5.800
'0:04.424',6.300
'0:04.425',7.000
'0:04.426',7.600
'0:04.427',7.500
'0:04.428',6.500
'0:04.429',4.700
'0:04.430',2.700
'0:04.431',1.100
'0:04.432',0.500
'0:04.433',0.800
'0:04.434',1.500
'0:04.435',1.900
'0:04.436',1.600
'0:04.437',0.600
'0:04.438',-0.400
'0:04.439',-0.600
'0:04.440',0.500
'0:04.441',2.600
'0:04.442',5.000
'0:04.443',7.000
'0:04.444',8.100
'0:04.445',8.500
'0:04.446',8.500
'0:04.447',8.500
'0:04.448',8.500
'0:04.449',8.200
'0:04.450',7.400
'0:04.451',5.900
'0:04.452',3.800
'0:04.453',1.700
'0:04.454',0.200
'0:04.455',-0.600
'0:04.456',-0.600
'0:04.457',-0.200
'0:04.458',0.200
'0:04.459',0.200
'0:04.460',-0.300
'0:04.461',-1.300
'0:04.462',-2.500
'0:04.463',-3.600
'0:04.464',-4.400
'0:04.465',-4.700
'0:04.466',-4.600
'0:04.467',-4.000
'0:04.468',-3.200
'0:04.469',-2.300
'0:04.470',-1.600
'0:04.471',-1.200
'0:04.472',-1.100
'0:04.473',-1.300
'0:04.474',-1.500
'0:04.475',-1.300
'0:04.476',-0.800
'0:04.477',0.200
'0:04.478',1.100
'0:04.479',1.700
'0:04.480',1.600
'0:04.481',0.800
'0:04.482',-0.200
'0:04.483',-1.100
'0:04.484',-1.500
'0:04.485',-1.600
'0:04.486',-1.600
'0:04.487',-2.000
'0:04.488',-2.900
'0:04.489',-3.900
'0:04.490',-4.700
'0:04.491',-4.900
'0:04.492',-4.500
'0:04.493',-3.900
'0:04.494',-3.700
'0:04.495',-3.900
'0:04.496',-4.500
'0:04.497',-5.100
'0:04.498',-5.400
'0:04.499',-5.400
'0:04.500',-5.500
'0:04.501',-5.800
'0:04.502',-6.200
'0:04.503',-6.100
'0:04.504',-5.300
'0:04.505',-3.700
'0:04.506',-1.900
'0:04.507',-0.600
'0:04.508',-0.200
'0:04.509',-0.500
'0:04.510',-0.800
'0:04.511',-0.700
'0:04.512',0.000
'0:04.513',0.900
'0:04.514',1.000
'0:04.515',0.200
'0:04.516',-1.600
'0:04.517',-3.400
'0:04.518',-4.500
'0:04.519',-4.500
'0:04.520',-3.600
'0:04.521',-2.600
'0:04.522',-2.100
'0:04.523',-2.500
'0:04.524',-3.400
'0:04.525',-4.300
'0:04.526',-4.800
'0:04.527',-4.800
'0:04.528',-4.600
'0:04.529',-4.600
'0:04.530',-5.000
'0:04.531',-5.500
'0:04.532',-6.100
'0:04.533',-6.500
'0:04.534',-6.500
'0:04.535',-6.300
'0:04.536',-5.800
'0:04.537',-5.200
'0:04.538',-4.400
'0:04.539',-3.700
'0:04.540',-3.200
'0:04.541',-3.000
'0:04.542',-3.200
'0:04.543',-3.400
'0:04.544',-3.300
'0:04.545',-2.800
'0:04.546',-2.000
'0:04.547',-1.500
'0:04.548',-1.400
'0:04.549',-1.700
'0:04.550',-2.000
'0:04.551',-1.800
'0:04.552',-0.500
'0:04.553',1.600
'0:04.554',3.700
'0:04.555',5.200
'0:04.556',5.600
'0:04.557',5.200
'0:04.558',4.600
'0:04.559',4.500
'0:04.560',4.900
'0:04.561',5.500
'0:04.562',5.700
'0:04.563',5.200
'0:04.564',4.200
'0:04.565',3.100
'0:04.566',2.500
'0:04.567',2.800
'0:04.568',3.800
'0:04.569',5.000
'0:04.570',5.900
'0:04.571',6.100
'0:04.572',5.700
'0:04.573',4.800
'0:04.574',3.600
'0:04.575',2.300
'0:04.576',1.100
'0:04.577',0.100
'0:04.578',-0.800
'0:04.579',-1.400
'0:04.580',-1.800
'0:04.581',-2.100
'0:04.582',-2.400
'0:04.583',-2.700
'0:04.584',-3.100
'0:04.585',-3.700
'0:04.586',-4.200
'0:04.587',-4.500
'0:04.588',-4.500
'0:04.589',-4.300
'0:04.590',-3.900
'0:04.591',-3.600
'0:04.592',-3.400
'0:04.593',-3.300
'0:04.594',-3.200
'0:04.595',-3.000
'0:04.596',-2.600
'0:04.597',-2.200
'0:04.598',-1.900
'0:04.599',-1.800
'0:04.600',-1.800
'0:04.601',-1.900
'0:04.602',-2.200
'0:04.603',-2.500
'0:04.604',-3.100
'0:04.605',-3.800
'0:04.606',-4.500
'0:04.607',-4.900
'0:04.608',-4.900
'0:04.609',-4.500
'0:04.610',-3.900
'0:04.611',-3.500
'0:04.612',-3.400
'0:04.613',-3.700
'0:04.614',-4.100
'0:04.615',-4.300
'0:04.616',-4.200
'0:04.617',-3.900
'0:04.618',-3.700
'0:04.619',-3.500
'0:04.620',-3.500
'0:04.621',-3.300
'0:04.622',-3.000
'0:04.623',-2.500
'0:04.624',-2.200
'0:04.625',-2.200
'0:04.626',-2.600
'0:04.627',-3.500
'0:04.628',-4.500
'0:04.629',-5.500
'0:04.630',-6.100
'0:04.631',-6.300
'0:04.632',-6.200
'0:04.633',-6.000
'0:04.634',-6.000
'0:04.635',-6.200
'0:04.636',-6.700
'0:04.637',-7.400
'0:04.638',-8.000
'0:04.639',-8.500
'0:04.640',-8.600
'0:04.641',-8.600
'0:04.642',-8.400
'0:04.643',-8.200
'0:04.644',-8.000
'0:04.645',-7.700
'0:04.646',-7.500
'0:04.647',-7.100
'0:04.648',-6.600
'0:04.649',-6.000
'0:04.650',-5.300
'0:04.651',-4.400
'0:04.652',-3.300
'0:04.653',-2.100
'0:04.654',-0.800
'0:04.655',0.500
'0:04.656',1.600
'0:04.657',2.400
'0:04.658',3.000
'0:04.659',3.200
'0:04.660',3.300
'0:04.661',3.300
'0:04.662',3.300
'0:04.663',3.200
'0:04.664',3.200
'0:04.665',3.100
'0:04.666',3.100
'0:04.667',3.200
'0:04.668',3.600
'0:04.669',4.200
'0:04.670',4.900
'0:04.671',5.700
'0:04.672',6.300
'0:04.673',6.800
'0:04.674',6.900
'0:04.675',6.800
'0:04.676',6.400
'0:04.677',5.700
'0:04.678',4.900
'0:04.679',4.100
'0:04.680',3.400
'0:04.681',2.900
'0:04.682',2.400
'0:04.683',2.000
'0:04.684',1.600
'0:04.685',1.100
'0:04.686',0.800
'0:04.687',0.900
'0:04.688',1.500
'0:04.689',2.600
'0:04.690',4.000
'0:04.691',5.400
'0:04.692',6.600
'0:04.693',7.600
'0:04.694',8.400
'0:04.695',9.100
'0:04.696',9.900
'0:04.697',10.700
'0:04.698',11.400
'0:04.699',11.800
'0:04.700',11.900
'0:04.701',11.800
'0:04.702',11.700
'0:04.703',11.600
'0:04.704',11.700
'0:04.705',11.800
'0:04.706',11.700
'0:04.707',11.000
'0:04.708',9.800
'0:04.709',8.000
'0:04.710',6.200
'0:04.711',4.800
'0:04.712',4.100
'0:04.713',4.100
'0:04.714',4.400
'0:04.715',4.500
'0:04.716',4.100
'0:04.717',3.000
'0:04.718',1.700
'0:04.719',0.400
'0:04.720',-0.500
'0:04.721',-0.900
'0:04.722',-1.200
'0:04.723',-1.400
'0:04.724',-1.600
'0:04.725',-1.800
'0:04.726',-1.800
'0:04.727',-1.500
'0:04.728',-1.000
'0:04.729',-0.500
'0:04.730',-0.200
'0:04.731',-0.400
'0:04.732',-1.100
'0:04.733',-1.900
'0:04.734',-2.400
'0:04.735',-2.300
'0:04.736',-1.700
'0:04.737',-0.800
'0:04.738',-0.300
'0:04.739',-0.300
'0:04.740',-0.800
'0:04.741',-1.500
'0:04.742',-2.000
'0:04.743',-2.000
'0:04.744',-1.400
'0:04.745',-0.700
'0:04.746',0.000
'0:04.747',0.300
'0:04.748',0.200
'0:04.749',-0.200
'0:04.750',-0.700
'0:04.751',-1.200
'0:04.752',-1.500
'0:04.753',-1.300
'0:04.754',-0.800
'0:04.755',-0.100
'0:04.756',0.600
'0:04.757',0.800
'0:04.758',0.300
'0:04.759',-0.900
'0:04.760',-2.200
'0:04.761',-3.400
'0:04.762',-4.100
'0:04.763',-4.300
'0:04.764',-4.500
'0:04.765',-5.100
'0:04.766',-6.000
'0:04.767',-7.100
'0:04.768',-8.000
'0:04.769',-8.100
'0:04.770',-7.300
'0:04.771',-5.900
'0:04.772',-4.200
'0:04.773',-2.600
'0:04.774',-1.300
'0:04.775',-0.200
'0:04.776',0.600
'0:04.777',1.400
'0:04.778',2.100
'0:04.779',2.500
'0:04.780',2.800
'0:04.781',2.900
'0:04.782',3.100
'0:04.783',3.500
'0:04.784',4.100
'0:04.785',4.600
'0:04.786',4.700
'0:04.787',4.200
'0:04.788',2.900
'0:04.789',1.100
'0:04.790',-0.600
'0:04.791',-1.800
'0:04.792',-2.200
'0:04.793',-1.900
'0:04.794',-1.100
'0:04.795',-0.200
'0:04.796',0.200
'0:04.797',0.100
'0:04.798',-0.500
'0:04.799',-1.500
'0:04.800',-2.400
'0:04.801',-3.000
'0:04.802',-3.100
'0:04.803',-2.600
'0:04.804',-1.600
'0:04.805',-0.400
'0:04.806',0.900
'0:04.807',2.000
'0:04.808',3.000
'0:04.809',3.700
'0:04.810',4.200
'0:04.811',4.500
'0:04.812',4.800
'0:04.813',5.100
'0:04.814',5.400
'0:04.815',5.600
'0:04.816',5.600
'0:04.817',5.500
'0:04.818',5.100
'0:04.819',4.500
'0:04.820',3.900
'0:04.821',3.400
'0:04.822',3.100
'0:04.823',2.600
'0:04.824',1.800
'0:04.825',0.500
'0:04.826',-1.200
'0:04.827',-2.900
'0:04.828',-4.200
'0:04.829',-4.800
'0:04.830',-4.600
'0:04.831',-4.200
'0:04.832',-4.100
'0:04.833',-4.800
'0:04.834',-6.100
'0:04.835',-7.600
'0:04.836',-8.500
'0:04.837',-8.700
'0:04.838',-8.200
'0:04.839',-7.400
'0:04.840',-6.800
'0:04.841',-6.500
'0:04.842',-6.400
'0:04.843',-6.000
'0:04.844',-5.100
'0:04.845',-3.600
'0:04.846',-1.900
'0:04.847',-0.100
'0:04.848',1.900
'0:04.849',4.300
'0:04.850',7.500
'0:04.851',11.100
'0:04.852',14.800
'0:04.853',17.700
'0:04.854',19.000
'0:04.855',18.700
'0:04.856',17.000
'0:04.857',14.700
'0:04.858',12.400
'0:04.859',10.300
'0:04.860',8.400
'0:04.861',6.100
'0:04.862',3.200
'0:04.863',-0.200
'0:04.864',-3.700
'0:04.865',-6.700
'0:04.866',-8.500
'0:04.867',-9.100
'0:04.868',-8.600
'0:04.869',-7.700
'0:04.870',-6.800
'0:04.871',-6.000
'0:04.872',-5.300
'0:04.873',-4.600
'0:04.874',-3.800
'0:04.875',-3.000
'0:04.876',-2.500
'0:04.877',-2.400
'0:04.878',-2.600
'0:04.879',-2.900
'0:04.880',-2.800
'0:04.881',-2.400
'0:04.882',-1.900
'0:04.883',-1.500
'0:04.884',-1.500
'0:04.885',-1.600
'0:04.886',-1.500
'0:04.887',-1.000
'0:04.888',-0.200
'0:04.889',0.400
'0:04.890',0.600
'0:04.891',0.000
'0:04.892',-0.800
'0:04.893',-1.600
'0:04.894',-1.800
'0:04.895',-1.600
'0:04.896',-1.400
'0:04.897',-1.500
'0:04.898',-2.100
'0:04.899',-2.600
'0:04.900',-2.800
'0:04.901',-2.200
'0:04.902',-1.200
'0:04.903',-0.200
'0:04.904',0.500
'0:04.905',0.600
'0:04.906',0.300
'0:04.907',0.100
'0:04.908',0.200
'0:04.909',0.400
'0:04.910',0.700
'0:04.911',0.700
'0:04.912',0.400
'0:04.913',0.100
'0:04.914',0.100
'0:04.915',0.500
'0:04.916',1.100
'0:04.917',1.800
'0:04.918',2.300
'0:04.919',2.500
'0:04.920',2.500
'0:04.921',2.300
'0:04.922',2.000
'0:04.923',1.900
'0:04.924',2.100
'0:04.925',2.800
'0:04.926',3.900
'0:04.927',5.200
'0:04.928',6.200
'0:04.929',6.700
'0:04.930',6.900
'0:04.931',6.900
'0:04.932',7.400
'0:04.933',8.300
'0:04.934',9.600
'0:04.935',10.900
'0:04.936',11.800
'0:04.937',12.300
'0:04.938',12.500
'0:04.939',12.900
'0:04.940',13.600
'0:04.941',14.400
'0:04.942',15.100
'0:04.943',15.400
'0:04.944',15.400
'0:04.945',15.600
'0:04.946',15.900
'0:04.947',16.500
'0:04.948',17.100
'0:04.949',17.200
'0:04.950',16.800
'0:04.951',15.800
'0:04.952',14.600
'0:04.953',13.300
'0:04.954',12.000
'0:04.955',10.500
'0:04.956',8.600
'0:04.957',6.100
'0:04.958',3.100
'0:04.959',-0.100
'0:04.960',-3.300
'0:04.961',-6.000
'0:04.962',-7.700
'0:04.963',-8.400
'0:04.964',-8.200
'0:04.965',-7.300
'0:04.966',-6.500
'0:04.967',-6.000
'0:04.968',-6.100
'0:04.969',-6.400
'0:04.970',-6.700
'0:04.971',-6.600
'0:04.972',-6.300
'0:04.973',-6.000
'0:04.974',-5.900
'0:04.975',-6.300
'0:04.976',-6.800
'0:04.977',-7.200
'0:04.978',-7.300
'0:04.979',-6.800
'0:04.980',-6.000
'0:04.981',-5.100
'0:04.982',-4.000
'0:04.983',-3.100
'0:04.984',-2.600
'0:04.985',-2.700
'0:04.986',-3.600
'0:04.987',-5.000
'0:04.988',-6.700
'0:04.989',-8.000
'0:04.990',-8.600
'0:04.991',-8.500
'0:04.992',-8.100
'0:04.993',-7.700
'0:04.994',-7.700
'0:04.995',-7.700
'0:04.996',-7.400
'0:04.997',-6.600
'0:04.998',-5.300
'0:04.999',-4.000
'0:05.000',-3.000
'0:05.001',-2.600
'0:05.002',-2.500
'0:05.003',-2.300
'0:05.004',-1.400
'0:05.005',0.200
'0:05.006',2.300
'0:05.007',4.200
'0:05.008',5.400
'0:05.009',5.400
'0:05.010',4.300
'0:05.011',2.500
'0:05.012',0.800
'0:05.013',-0.400
'0:05.014',-0.700
'0:05.015',-0.300
'0:05.016',0.500
'0:05.017',1.200
'0:05.018',1.600
'0:05.019',1.800
'0:05.020',1.900
'0:05.021',2.100
'0:05.022',2.300
'0:05.023',2.300
'0:05.024',1.800
'0:05.025',1.200
'0:05.026',0.600
'0:05.027',0.600
'0:05.028',1.200
'0:05.029',2.300
'0:05.030',3.100
'0:05.031',3.300
'0:05.032',2.800
'0:05.033',1.800
'0:05.034',1.000
'0:05.035',0.900
'0:05.036',1.400
'0:05.037',2.300
'0:05.038',3.100
'0:05.039',3.400
'0:05.040',3.000
'0:05.041',2.300
'0:05.042',1.500
'0:05.043',0.700
'0:05.044',0.100
'0:05.045',-0.700
'0:05.046',-1.500
'0:05.047',-2.500
'0:05.048',-3.300
'0:05.049',-3.900
'0:05.050',-4.200
'0:05.051',-4.100
'0:05.052',-3.700
'0:05.053',-3.000
'0:05.054',-2.000
'0:05.055',-0.900
'0:05.056',0.100
'0:05.057',0.600
'0:05.058',0.600
'0:05.059',0.000
'0:05.060',-0.800
'0:05.061',-1.600
'0:05.062',-2.200
'0:05.063',-2.500
'0:05.064',-2.400
'0:05.065',-2.100
'0:05.066',-1.600
'0:05.067',-1.000
'0:05.068',-0.300
'0:05.069',0.400
'0:05.070',1.000
'0:05.071',1.500
'0:05.072',1.800
'0:05.073',1.800
'0:05.074',1.500
'0:05.075',1.100
'0:05.076',0.700
'0:05.077',0.500
'0:05.078',0.700
'0:05.079',1.300
'0:05.080',2.200
'0:05.081',3.300
'0:05.082',4.200
'0:05.083',4.600
'0:05.084',4.600
'0:05.085',4.200
'0:05.086',3.800
'0:05.087',3.700
'0:05.088',4.100
'0:05.089',4.700
'0:05.090',5.200
'0:05.091',5.200
'0:05.092',4.600
'0:05.093',3.700
'0:05.094',2.900
'0:05.095',2.600
'0:05.096',2.900
'0:05.097',3.400
'0:05.098',3.600
'0:05.099',3.300
'0:05.100',2.500
'0:05.101',1.700
'0:05.102',1.300
'0:05.103',1.400
'0:05.104',2.000
'0:05.105',2.600
'0:05.106',3.100
'0:05.107',3.500
'0:05.108',3.600
'0:05.109',3.700
'0:05.110',3.600
'0:05.111',3.400
'0:05.112',3.100
'0:05.113',2.800
'0:05.114',2.800
'0:05.115',2.900
'0:05.116',3.300
'0:05.117',3.700
'0:05.118',4.100
'0:05.119',4.400
'0:05.120',4.500
'0:05.121',4.400
'0:05.122',4.000
'0:05.123',3.500
'0:05.124',3.000
'0:05.125',2.900
'0:05.126',3.400
'0:05.127',4.400
'0:05.128',5.500
'0:05.129',6.200
'0:05.130',5.900
'0:05.131',4.700
'0:05.132',2.900
'0:05.133',1.000
'0:05.134',-0.500
'0:05.135',-1.600
'0:05.136',-2.200
'0:05.137',-2.400
'0:05.138',-2.000
'0:05.139',-1.000
'0:05.140',0.600
'0:05.141',2.500
'0:05.142',4.200
'0:05.143',5.300
'0:05.144',5.500
'0:05.145',5.200
'0:05.146',4.800
'0:05.147',4.600
'0:05.148',4.600
'0:05.149',4.300
'0:05.150',3.500
'0:05.151',1.900
'0:05.152',-0.100
'0:05.153',-1.800
'0:05.154',-2.600
'0:05.155',-2.300
'0:05.156',-1.400
'0:05.157',-0.300
'0:05.158',0.400
'0:05.159',0.800
'0:05.160',1.000
'0:05.161',1.300
'0:05.162',1.900
'0:05.163',2.700
'0:05.164',3.600
'0:05.165',4.100
'0:05.166',3.900
'0:05.167',3.000
'0:05.168',1.300
'0:05.169',-0.500
'0:05.170',-1.900
'0:05.171',-2.300
'0:05.172',-1.400
'0:05.173',0.600
'0:05.174',2.900
'0:05.175',4.600
'0:05.176',5.200
'0:05.177',4.800
'0:05.178',4.100
'0:05.179',3.700
'0:05.180',3.900
'0:05.181',4.500
'0:05.182',4.900
'0:05.183',4.400
'0:05.184',3.100
'0:05.185',1.300
'0:05.186',-0.300
'0:05.187',-1.100
'0:05.188',-1.100
'0:05.189',-0.800
'0:05.190',-0.700
'0:05.191',-1.100
'0:05.192',-1.800
'0:05.193',-2.600
'0:05.194',-3.100
'0:05.195',-3.200
'0:05.196',-3.100
'0:05.197',-3.100
'0:05.198',-3.300
'0:05.199',-3.600
'0:05.200',-3.700
'0:05.201',-3.600
'0:05.202',-3.100
'0:05.203',-2.500
'0:05.204',-2.000
'0:05.205',-1.900
'0:05.206',-2.100
'0:05.207',-2.500
'0:05.208',-2.800
'0:05.209',-2.700
'0:05.210',-2.100
'0:05.211',-1.100
'0:05.212',-0.100
'0:05.213',0.600
'0:05.214',1.100
'0:05.215',1.500
'0:05.216',1.900
'0:05.217',2.500
'0:05.218',3.000
'0:05.219',3.200
'0:05.220',3.000
'0:05.221',2.500
'0:05.222',1.900
'0:05.223',1.400
'0:05.224',1.300
'0:05.225',1.500
'0:05.226',2.000
'0:05.227',2.400
'0:05.228',2.800
'0:05.229',3.000
'0:05.230',3.000
'0:05.231',2.900
'0:05.232',2.600
'0:05.233',2.300
'0:05.234',2.000
'0:05.235',1.900
'0:05.236',1.900
'0:05.237',1.900
'0:05.238',1.900
'0:05.239',1.600
'0:05.240',1.400
'0:05.241',1.500
'0:05.242',2.100
'0:05.243',3.200
'0:05.244',4.700
'0:05.245',6.100
'0:05.246',6.800
'0:05.247',6.900
'0:05.248',6.400
'0:05.249',5.900
'0:05.250',5.800
'0:05.251',6.400
'0:05.252',7.700
'0:05.253',9.100
'0:05.254',10.500
'0:05.255',11.400
'0:05.256',12.100
'0:05.257',12.600
'0:05.258',13.100
'0:05.259',13.600
'0:05.260',14.000
'0:05.261',14.000
'0:05.262',13.600
'0:05.263',12.800
'0:05.264',11.700
'0:05.265',10.800
'0:05.266',10.200
'0:05.267',10.100
'0:05.268',10.600
'0:05.269',11.400
'0:05.270',12.100
'0:05.271',12.300
'0:05.272',11.700
'0:05.273',10.400
'0:05.274',9.100
'0:05.275',8.200
'0:05.276',8.400
'0:05.277',9.400
'0:05.278',10.900
'0:05.279',12.000
'0:05.280',12.100
'0:05.281',11.300
'0:05.282',9.900
'0:05.283',8.700
'0:05.284',8.100
'0:05.285',8.400
'0:05.286',9.200
'0:05.287',10.100
'0:05.288',10.900
'0:05.289',11.400
'0:05.290',11.900
'0:05.291',12.500
'0:05.292',13.300
'0:05.293',14.000
'0:05.294',14.400
'0:05.295',14.100
'0:05.296',13.400
'0:05.297',12.400
'0:05.298',11.600
'0:05.299',11.200
'0:05.300',11.100
'0:05.301',11.100
'0:05.302',10.900
'0:05.303',10.500
'0:05.304',9.900
'0:05.305',9.300
'0:05.306',8.900
'0:05.307',8.800
'0:05.308',8.900
'0:05.309',8.900
'0:05.310',8.600
'0:05.311',8.300
'0:05.312',8.200
'0:05.313',8.600
'0:05.314',9.700
'0:05.315',11.400
'0:05.316',13.200
'0:05.317',14.800
'0:05.318',16.100
'0:05.319',17.600
'0:05.320',19.800
'0:05.321',23.000
'0:05.322',26.700
'0:05.323',29.900
'0:05.324',31.400
'0:05.325',30.400
'0:05.326',27.400
'0:05.327',23.500
'0:05.328',19.900
'0:05.329',17.100
'0:05.330',15.000
'0:05.331',12.700
'0:05.332',9.400
'0:05.333',5.100
'0:05.334',0.300
'0:05.335',-4.200
'0:05.336',-7.600
'0:05.337',-9.600
'0:05.338',-10.600
'0:05.339',-10.600
'0:05.340',-9.900
'0:05.341',-8.400
'0:05.342',-6.100
'0:05.343',-3.400
'0:05.344',-0.800
'0:05.345',1.200
'0:05.346',2.300
'0:05.347',2.600
'0:05.348',2.500
'0:05.349',2.500
'0:05.350',2.400
'0:05.351',2.100
'0:05.352',1.400
'0:05.353',0.300
'0:05.354',-0.700
'0:05.355',-1.200
'0:05.356',-0.900
'0:05.357',-0.100
'0:05.358',0.700
'0:05.359',1.100
'0:05.360',1.000
'0:05.361',0.500
'0:05.362',-0.100
'0:05.363',-0.400
'0:05.364',-0.600
'0:05.365',-0.700
'0:05.366',-0.600
'0:05.367',-0.300
'0:05.368',0.400
'0:05.369',1.700
'0:05.370',3.200
'0:05.371',4.400
'0:05.372',5.000
'0:05.373',5.000
'0:05.374',4.600
'0:05.375',4.200
'0:05.376',4.000
'0:05.377',3.800
'0:05.378',3.200
'0:05.379',2.000
'0:05.380',0.600
'0:05.381',-0.800
'0:05.382',-1.600
'0:05.383',-1.700
'0:05.384',-1.400
'0:05.385',-0.900
'0:05.386',-0.500
'0:05.387',-0.100
'0:05.388',0.500
'0:05.389',1.400
'0:05.390',2.300
'0:05.391',2.700
'0:05.392',2.300
'0:05.393',1.100
'0:05.394',-0.400
'0:05.395',-1.300
'0:05.396',-1.200
'0:05.397',0.000
'0:05.398',1.700
'0:05.399',3.100
'0:05.400',3.700
'0:05.401',3.400
'0:05.402',2.600
'0:05.403',2.100
'0:05.404',2.400
'0:05.405',3.400
'0:05.406',4.600
'0:05.407',5.400
'0:05.408',5.400
'0:05.409',4.700
'0:05.410',3.700
'0:05.411',2.800
'0:05.412',2.300
'0:05.413',2.000
'0:05.414',2.000
'0:05.415',2.000
'0:05.416',2.100
'0:05.417',2.500
'0:05.418',2.900
'0:05.419',3.300
'0:05.420',3.400
'0:05.421',3.000
'0:05.422',2.400
'0:05.423',2.100
'0:05.424',2.400
'0:05.425',3.300
'0:05.426',4.500
'0:05.427',5.700
'0:05.428',6.400
'0:05.429',6.700
'0:05.430',6.800
'0:05.431',6.800
'0:05.432',7.000
'0:05.433',7.100
'0:05.434',7.000
'0:05.435',6.700
'0:05.436',6.400
'0:05.437',6.100
'0:05.438',6.000
'0:05.439',6.100
'0:05.440',6.300
'0:05.441',6.300
'0:05.442',6.100
'0:05.443',5.500
'0:05.444',4.800
'0:05.445',3.800
'0:05.446',3.000
'0:05.447',2.400
'0:05.448',2.300
'0:05.449',2.700
'0:05.450',3.300
'0:05.451',3.700
'0:05.452',3.600
'0:05.453',2.700
'0:05.454',1.400
'0:05.455',0.000
'0:05.456',-0.800
'0:05.457',-0.600
'0:05.458',0.500
'0:05.459',2.200
'0:05.460',3.900
'0:05.461',4.900
'0:05.462',5.300
'0:05.463',5.300
'0:05.464',5.500
'0:05.465',6.300
'0:05.466',7.900
'0:05.467',9.700
'0:05.468',11.300
'0:05.469',11.800
'0:05.470',11.200
'0:05.471',9.900
'0:05.472',8.500
'0:05.473',7.600
'0:05.474',7.300
'0:05.475',7.400
'0:05.476',7.400
'0:05.477',7.200
'0:05.478',7.000
'0:05.479',7.100
'0:05.480',7.800
'0:05.481',9.000
'0:05.482',10.100
'0:05.483',10.800
'0:05.484',10.900
'0:05.485',10.600
'0:05.486',10.400
'0:05.487',10.500
'0:05.488',11.000
'0:05.489',11.600
'0:05.490',12.000
'0:05.491',12.000
'0:05.492',12.000
'0:05.493',12.100
'0:05.494',12.900
'0:05.495',14.100
'0:05.496',15.700
'0:05.497',17.300
'0:05.498',18.500
'0:05.499',19.200
'0:05.500',19.300
'0:05.501',18.700
'0:05.502',17.500
'0:05.503',15.700
'0:05.504',13.500
'0:05.505',11.400
'0:05.506',9.800
'0:05.507',9.000
'0:05.508',9.300
'0:05.509',10.100
'0:05.510',11.100
'0:05.511',11.700
'0:05.512',11.600
'0:05.513',10.900
'0:05.514',9.900
'0:05.515',8.900
'0:05.516',8.100
'0:05.517',7.400
'0:05.518',6.900
'0:05.519',6.300
'0:05.520',5.700
'0:05.521',5.100
'0:05.522',4.600
'0:05.523',4.200
'0:05.524',3.900
'0:05.525',3.800
'0:05.526',3.800
'0:05.527',4.000
'0:05.528',4.400
'0:05.529',4.700
'0:05.530',4.900
'0:05.531',4.900
'0:05.532',4.700
'0:05.533',4.500
'0:05.534',4.700
'0:05.535',5.300
'0:05.536',6.200
'0:05.537',7.200
'0:05.538',8.100
'0:05.539',8.700
'0:05.540',8.700
'0:05.541',8.100
'0:05.542',6.900
'0:05.543',5.500
'0:05.544',4.200
'0:05.545',3.600
'0:05.546',3.700
'0:05.547',4.600
'0:05.548',6.000
'0:05.549',7.600
'0:05.550',9.100
'0:05.551',10.500
'0:05.552',11.700
'0:05.553',12.900
'0:05.554',13.800
'0:05.555',14.300
'0:05.556',14.100
'0:05.557',13.500
'0:05.558',12.900
'0:05.559',12.700
'0:05.560',13.200
'0:05.561',14.200
'0:05.562',15.300
'0:05.563',15.900
'0:05.564',15.700
'0:05.565',14.500
'0:05.566',12.900
'0:05.567',11.300
'0:05.568',10.100
'0:05.569',9.500
'0:05.570',9.500
'0:05.571',9.800
'0:05.572',10.100
'0:05.573',10.200
'0:05.574',10.000
'0:05.575',9.600
'0:05.576',9.200
'0:05.577',9.000
'0:05.578',8.900
'0:05.579',8.800
'0:05.580',8.600
'0:05.581',8.000
'0:05.582',6.700
'0:05.583',4.900
'0:05.584',2.900
'0:05.585',1.100
'0:05.586',-0.100
'0:05.587',-0.700
'0:05.588',-0.800
'0:05.589',-0.700
'0:05.590',-0.700
'0:05.591',-0.700
'0:05.592',-0.500
'0:05.593',0.000
'0:05.594',1.000
'0:05.595',1.900
'0:05.596',2.500
'0:05.597',2.600
'0:05.598',2.100
'0:05.599',1.600
'0:05.600',1.300
'0:05.601',1.500
'0:05.602',1.900
'0:05.603',2.000
'0:05.604',1.400
'0:05.605',0.200
'0:05.606',-1.200
'0:05.607',-2.400
'0:05.608',-2.900
'0:05.609',-2.800
'0:05.610',-2.200
'0:05.611',-1.300
'0:05.612',0.100
'0:05.613',2.000
'0:05.614',4.600
'0:05.615',7.500
'0:05.616',10.400
'0:05.617',12.600
'0:05.618',13.800
'0:05.619',14.400
'0:05.620',14.600
'0:05.621',14.900
'0:05.622',15.300
'0:05.623',15.700
'0:05.624',15.900
'0:05.625',15.700
'0:05.626',15.200
'0:05.627',14.400
'0:05.628',13.400
'0:05.629',12.100
'0:05.630',10.300
'0:05.631',8.300
'0:05.632',6.100
'0:05.633',4.100
'0:05.634',2.600
'0:05.635',1.500
'0:05.636',0.700
'0:05.637',-0.400
'0:05.638',-2.100
'0:05.639',-4.300
'0:05.640',-6.900
'0:05.641',-9.200
'0:05.642',-11.100
'0:05.643',-12.100
'0:05.644',-12.300
'0:05.645',-12.100
'0:05.646',-11.700
'0:05.647',-11.500
'0:05.648',-11.500
'0:05.649',-11.900
'0:05.650',-12.400
'0:05.651',-13.200
'0:05.652',-14.200
'0:05.653',-15.500
'0:05.654',-17.000
'0:05.655',-18.500
'0:05.656',-19.700
'0:05.657',-20.100
'0:05.658',-19.900
'0:05.659',-19.200
'0:05.660',-18.400
'0:05.661',-17.600
'0:05.662',-17.100
'0:05.663',-16.500
'0:05.664',-15.800
'0:05.665',-14.900
'0:05.666',-14.000
'0:05.667',-13.400
'0:05.668',-13.000
'0:05.669',-12.500
'0:05.670',-11.600
'0:05.671',-10.100
'0:05.672',-8.400
'0:05.673',-6.800
'0:05.674',-5.900
'0:05.675',-5.700
'0:05.676',-6.000
'0:05.677',-6.200
'0:05.678',-6.100
'0:05.679',-5.800
'0:05.680',-5.400
'0:05.681',-5.200
'0:05.682',-5.300
'0:05.683',-5.300
'0:05.684',-5.100
'0:05.685',-4.800
'0:05.686',-4.600
'0:05.687',-4.800
'0:05.688',-5.400
'0:05.689',-6.300
'0:05.690',-6.800
'0:05.691',-6.900
'0:05.692',-6.700
'0:05.693',-6.600
'0:05.694',-6.900
'0:05.695',-7.700
'0:05.696',-8.600
'0:05.697',-9.000
'0:05.698',-8.700
'0:05.699',-8.000
'0:05.700',-7.300
'0:05.701',-7.100
'0:05.702',-7.500
'0:05.703',-8.000
'0:05.704',-8.200
'0:05.705',-7.700
'0:05.706',-6.500
'0:05.707',-5.000
'0:05.708',-3.600
'0:05.709',-2.200
'0:05.710',-0.900
'0:05.711',0.600
'0:05.712',1.900
'0:05.713',2.800
'0:05.714',2.900
'0:05.715',2.400
'0:05.716',1.600
'0:05.717',1.300
'0:05.718',1.900
'0:05.719',3.300
'0:05.720',5.100
'0:05.721',6.700
'0:05.722',7.700
'0:05.723',8.000
'0:05.724',7.800
'0:05.725',7.500
'0:05.726',6.900
'0:05.727',6.000
'0:05.728',4.600
'0:05.729',2.800
'0:05.730',1.000
'0:05.731',-0.500
'0:05.732',-1.500
'0:05.733',-2.200
'0:05.734',-2.600
'0:05.735',-3.000
'0:05.736',-3.300
'0:05.737',-3.200
'0:05.738',-2.600
'0:05.739',-1.700
'0:05.740',-0.600
'0:05.741',0.400
'0:05.742',1.000
'0:05.743',1.400
'0:05.744',1.600
'0:05.745',1.500
'0:05.746',1.100
'0:05.747',0.200
'0:05.748',-1.000
'0:05.749',-2.200
'0:05.750',-2.800
'0:05.751',-2.800
'0:05.752',-2.100
'0:05.753',-1.400
'0:05.754',-1.000
'0:05.755',-1.100
'0:05.756',-1.600
'0:05.757',-1.800
'0:05.758',-1.300
'0:05.759',-0.200
'0:05.760',1.100
'0:05.761',2.000
'0:05.762',2.100
'0:05.763',1.300
'0:05.764',0.100
'0:05.765',-1.100
'0:05.766',-1.500
'0:05.767',-1.100
'0:05.768',0.200
'0:05.769',1.800
'0:05.770',3.200
'0:05.771',4.100
'0:05.772',4.000
'0:05.773',2.900
'0:05.774',1.100
'0:05.775',-1.300
'0:05.776',-3.600
'0:05.777',-5.800
'0:05.778',-7.300
'0:05.779',-8.100
'0:05.780',-8.100
'0:05.781',-7.500
'0:05.782',-6.600
'0:05.783',-5.600
'0:05.784',-4.600
'0:05.785',-3.500
'0:05.786',-1.800
'0:05.787',0.800
'0:05.788',4.600
'0:05.789',9.300
'0:05.790',14.300
'0:05.791',18.500
'0:05.792',21.100
'0:05.793',21.700
'0:05.794',20.400
'0:05.795',17.900
'0:05.796',14.900
'0:05.797',11.900
'0:05.798',9.100
'0:05.799',6.400
'0:05.800',3.500
'0:05.801',0.300
'0:05.802',-3.000
'0:05.803',-6.200
'0:05.804',-8.900
'0:05.805',-10.900
'0:05.806',-11.900
'0:05.807',-11.900
'0:05.808',-10.900
'0:05.809',-9.300
'0:05.810',-7.500
'0:05.811',-5.800
'0:05.812',-4.400
'0:05.813',-3.400
'0:05.814',-2.800
'0:05.815',-2.700
'0:05.816',-3.100
'0:05.817',-4.000
'0:05.818',-5.400
'0:05.819',-6.900
'0:05.820',-8.300
'0:05.821',-9.500
'0:05.822',-10.200
'0:05.823',-10.700
'0:05.824',-11.000
'0:05.825',-11.100
'0:05.826',-11.000
'0:05.827',-10.600
'0:05.828',-9.900
'0:05.829',-9.300
'0:05.830',-8.900
'0:05.831',-8.700
'0:05.832',-8.600
'0:05.833',-8.400
'0:05.834',-8.000
'0:05.835',-7.800
'0:05.836',-7.900
'0:05.837',-8.300
'0:05.838',-8.900
'0:05.839',-9.400
'0:05.840',-9.500
'0:05.841',-9.500
'0:05.842',-9.600
'0:05.843',-10.300
'0:05.844',-11.400
'0:05.845',-12.500
'0:05.846',-13.100
'0:05.847',-13.100
'0:05.848',-12.700
'0:05.849',-12.400
'0:05.850',-12.800
'0:05.851',-13.600
'0:05.852',-14.400
'0:05.853',-14.700
'0:05.854',-14.100
'0:05.855',-13.000
'0:05.856',-11.900
'0:05.857',-11.500
'0:05.858',-12.000
'0:05.859',-13.200
'0:05.860',-14.300
'0:05.861',-14.900
'0:05.862',-14.700
'0:05.863',-13.700
'0:05.864',-12.500
'0:05.865',-11.500
'0:05.866',-11.000
'0:05.867',-11.000
'0:05.868',-11.100
'0:05.869',-11.000
'0:05.870',-10.800
'0:05.871',-10.500
'0:05.872',-10.700
'0:05.873',-11.600
'0:05.874',-13.000
'0:05.875',-14.500
'0:05.876',-15.400
'0:05.877',-15.300
'0:05.878',-14.500
'0:05.879',-13.200
'0:05.880',-12.300
'0:05.881',-11.900
'0:05.882',-12.100
'0:05.883',-12.600
'0:05.884',-12.800
'0:05.885',-12.700
'0:05.886',-12.200
'0:05.887',-11.500
'0:05.888',-10.800
'0:05.889',-10.200
'0:05.890',-9.700
'0:05.891',-9.300
'0:05.892',-9.100
'0:05.893',-9.000
'0:05.894',-9.100
'0:05.895',-9.100
'0:05.896',-8.800
'0:05.897',-8.400
'0:05.898',-7.900
'0:05.899',-7.500
'0:05.900',-7.200
'0:05.901',-6.900
'0:05.902',-6.400
'0:05.903',-5.800
'0:05.904',-5.300
'0:05.905',-5.100
'0:05.906',-5.500
'0:05.907',-6.200
'0:05.908',-6.800
'0:05.909',-6.900
'0:05.910',-6.300
'0:05.911',-5.400
'0:05.912',-4.700
'0:05.913',-4.700
'0:05.914',-5.200
'0:05.915',-6.000
'0:05.916',-6.600
'0:05.917',-7.100
'0:05.918',-7.400
'0:05.919',-7.900
'0:05.920',-8.400
'0:05.921',-8.600
'0:05.922',-8.500
'0:05.923',-7.800
'0:05.924',-6.900
'0:05.925',-6.000
'0:05.926',-5.400
'0:05.927',-5.100
'0:05.928',-5.000
'0:05.929',-5.000
'0:05.930',-5.200
'0:05.931',-5.500
'0:05.932',-5.800
'0:05.933',-5.900
'0:05.934',-5.500
'0:05.935',-4.300
'0:05.936',-2.400
'0:05.937',-0.400
'0:05.938',1.200
'0:05.939',2.100
'0:05.940',2.100
'0:05.941',1.700
'0:05.942',1.000
'0:05.943',0.400
'0:05.944',0.100
'0:05.945',-0.100
'0:05.946',-0.300
'0:05.947',-0.600
'0:05.948',-1.300
'0:05.949',-2.000
'0:05.950',-2.500
'0:05.951',-2.200
'0:05.952',-1.100
'0:05.953',0.700
'0:05.954',2.600
'0:05.955',4.200
'0:05.956',5.100
'0:05.957',5.400
'0:05.958',5.400
'0:05.959',5.300
'0:05.960',5.300
'0:05.961',5.000
'0:05.962',4.400
'0:05.963',3.300
'0:05.964',2.200
'0:05.965',1.200
'0:05.966',0.300
'0:05.967',-0.600
'0:05.968',-1.700
'0:05.969',-2.900
'0:05.970',-4.000
'0:05.971',-4.500
'0:05.972',-4.300
'0:05.973',-3.500
'0:05.974',-2.700
'0:05.975',-2.400
'0:05.976',-2.600
'0:05.977',-3.200
'0:05.978',-3.900
'0:05.979',-4.300
'0:05.980',-4.600
'0:05.981',-4.900
'0:05.982',-5.400
'0:05.983',-6.000
'0:05.984',-6.500
'0:05.985',-6.800
'0:05.986',-6.600
'0:05.987',-6.000
'0:05.988',-5.300
'0:05.989',-4.600
'0:05.990',-4.200
'0:05.991',-4.100
'0:05.992',-4.600
'0:05.993',-5.400
'0:05.994',-6.400
'0:05.995',-7.100
'0:05.996',-7.100
'0:05.997',-6.300
'0:05.998',-5.000
'0:05.999',-3.900
'0:06.000',-3.400
'0:06.001',-3.700
'0:06.002',-4.400
'0:06.003',-5.100
'0:06.004',-5.300
'0:06.005',-5.100
'0:06.006',-4.600
'0:06.007',-4.400
'0:06.008',-4.600
'0:06.009',-5.200
'0:06.010',-5.800
'0:06.011',-6.000
'0:06.012',-5.800
'0:06.013',-5.000
'0:06.014',-4.000
'0:06.015',-3.000
'0:06.016',-2.300
'0:06.017',-1.900
'0:06.018',-1.800
'0:06.019',-1.900
'0:06.020',-2.200
'0:06.021',-2.700
'0:06.022',-3.100
'0:06.023',-3.500
'0:06.024',-3.700
'0:06.025',-3.600
'0:06.026',-3.300
'0:06.027',-2.900
'0:06.028',-2.400
'0:06.029',-1.800
'0:06.030',-1.300
'0:06.031',-0.700
'0:06.032',-0.400
'0:06.033',-0.200
'0:06.034',-0.500
'0:06.035',-1.200
'0:06.036',-2.200
'0:06.037',-3.400
'0:06.038',-4.500
'0:06.039',-5.400
'0:06.040',-6.000
'0:06.041',-6.100
'0:06.042',-5.700
'0:06.043',-4.600
'0:06.044',-2.800
'0:06.045',-0.500
'0:06.046',1.800
'0:06.047',3.500
'0:06.048',4.200
'0:06.049',3.800
'0:06.050',2.900
'0:06.051',1.800
'0:06.052',1.100
'0:06.053',1.000
'0:06.054',1.100
'0:06.055',1.100
'0:06.056',0.600
'0:06.057',-0.400
'0:06.058',-1.500
'0:06.059',-2.400
'0:06.060',-2.700
'0:06.061',-2.300
'0:06.062',-1.700
'0:06.063',-1.300
'0:06.064',-1.100
'0:06.065',-1.200
'0:06.066',-1.300
'0:06.067',-1.000
'0:06.068',-0.300
'0:06.069',0.600
'0:06.070',1.100
'0:06.071',1.100
'0:06.072',0.500
'0:06.073',-0.200
'0:06.074',-0.600
'0:06.075',-0.400
'0:06.076',0.300
'0:06.077',0.900
'0:06.078',1.000
'0:06.079',0.100
'0:06.080',-1.500
'0:06.081',-3.300
'0:06.082',-4.600
'0:06.083',-5.100
'0:06.084',-4.600
'0:06.085',-3.600
'0:06.086',-2.600
'0:06.087',-1.800
'0:06.088',-1.600
'0:06.089',-1.900
'0:06.090',-2.400
'0:06.091',-3.000
'0:06.092',-3.300
'0:06.093',-3.300
'0:06.094',-3.100
'0:06.095',-2.800
'0:06.096',-2.600
'0:06.097',-2.600
'0:06.098',-2.800
'0:06.099',-3.200
'0:06.100',-3.600
'0:06.101',-4.000
'0:06.102',-4.000
'0:06.103',-3.800
'0:06.104',-3.400
'0:06.105',-2.900
'0:06.106',-2.500
'0:06.107',-2.600
'0:06.108',-3.200
'0:06.109',-4.000
'0:06.110',-4.800
'0:06.111',-5.100
'0:06.112',-4.700
'0:06.113',-3.900
'0:06.114',-3.000
'0:06.115',-2.500
'0:06.116',-2.600
'0:06.117',-3.200
'0:06.118',-3.900
'0:06.119',-4.300
'0:06.120',-4.200
'0:06.121',-3.800
'0:06.122',-3.300
'0:06.123',-3.100
'0:06.124',-3.300
'0:06.125',-3.900
'0:06.126',-4.400
'0:06.127',-4.500
'0:06.128',-4.300
'0:06.129',-3.700
'0:06.130',-2.900
'0:06.131',-2.300
'0:06.132',-1.800
'0:06.133',-1.300
'0:06.134',-0.500
'0:06.135',0.600
'0:06.136',1.900
'0:06.137',3.000
'0:06.138',3.300
'0:06.139',2.700
'0:06.140',1.500
'0:06.141',0.200
'0:06.142',-0.400
'0:06.143',-0.100
'0:06.144',0.800
'0:06.145',1.600
'0:06.146',1.400
'0:06.147',-0.100
'0:06.148',-2.500
'0:06.149',-5.000
'0:06.150',-6.500
'0:06.151',-7.000
'0:06.152',-6.600
'0:06.153',-6.100
'0:06.154',-6.100
'0:06.155',-6.900
'0:06.156',-8.100
'0:06.157',-9.400
'0:06.158',-10.200
'0:06.159',-10.500
'0:06.160',-10.300
'0:06.161',-9.900
'0:06.162',-9.200
'0:06.163',-8.500
'0:06.164',-7.900
'0:06.165',-7.500
'0:06.166',-7.500
'0:06.167',-8.200
'0:06.168',-9.300
'0:06.169',-10.500
'0:06.170',-11.400
'0:06.171',-11.700
'0:06.172',-11.500
'0:06.173',-11.100
'0:06.174',-10.700
'0:06.175',-10.700
'0:06.176',-11.000
'0:06.177',-11.600
'0:06.178',-12.000
'0:06.179',-12.300
'0:06.180',-12.400
'0:06.181',-12.600
'0:06.182',-13.000
'0:06.183',-13.700
'0:06.184',-14.500
'0:06.185',-15.100
'0:06.186',-15.100
'0:06.187',-14.600
'0:06.188',-13.800
'0:06.189',-13.000
'0:06.190',-12.600
'0:06.191',-12.600
'0:06.192',-12.800
'0:06.193',-12.800
'0:06.194',-12.200
'0:06.195',-11.000
'0:06.196',-9.500
'0:06.197',-8.100
'0:06.198',-6.900
'0:06.199',-6.100
'0:06.200',-5.400
'0:06.201',-4.900
'0:06.202',-4.400
'0:06.203',-4.200
'0:06.204',-4.300
'0:06.205',-4.700
'0:06.206',-5.300
'0:06.207',-6.000
'0:06.208',-6.400
'0:06.209',-6.600
'0:06.210',-6.500
'0:06.211',-6.200
'0:06.212',-5.600
'0:06.213',-5.100
'0:06.214',-4.900
'0:06.215',-5.000
'0:06.216',-5.500
'0:06.217',-6.100
'0:06.218',-6.500
'0:06.219',-6.300
'0:06.220',-5.800
'0:06.221',-5.100
'0:06.222',-4.900
'0:06.223',-5.400
'0:06.224',-6.800
'0:06.225',-8.600
'0:06.226',-10.300
'0:06.227',-11.400
'0:06.228',-12.100
'0:06.229',-12.500
'0:06.230',-12.900
'0:06.231',-13.500
'0:06.232',-13.900
'0:06.233',-13.900
'0:06.234',-13.100
'0:06.235',-11.800
'0:06.236',-10.500
'0:06.237',-9.500
'0:06.238',-9.100
'0:06.239',-9.300
'0:06.240',-9.700
'0:06.241',-10.000
'0:06.242',-10.100
'0:06.243',-9.900
'0:06.244',-9.700
'0:06.245',-9.300
'0:06.246',-8.900
'0:06.247',-8.300
'0:06.248',-7.600
'0:06.249',-6.900
'0:06.250',-6.100
'0:06.251',-5.100
'0:06.252',-3.700
'0:06.253',-1.800
'0:06.254',0.800
'0:06.255',3.800
'0:06.256',6.800
'0:06.257',9.400
'0:06.258',11.100
'0:06.259',11.900
'0:06.260',11.800
'0:06.261',10.900
'0:06.262',9.400
'0:06.263',7.600
'0:06.264',5.600
'0:06.265',3.600
'0:06.266',1.600
'0:06.267',-0.400
'0:06.268',-2.300
'0:06.269',-4.200
'0:06.270',-5.900
'0:06.271',-7.100
'0:06.272',-7.700
'0:06.273',-7.700
'0:06.274',-7.000
'0:06.275',-5.900
'0:06.276',-4.300
'0:06.277',-2.500
'0:06.278',-0.900
'0:06.279',0.500
'0:06.280',1.200
'0:06.281',1.400
'0:06.282',1.100
'0:06.283',0.600
'0:06.284',0.400
'0:06.285',0.300
'0:06.286',0.300
'0:06.287',0.000
'0:06.288',-0.900
'0:06.289',-2.300
'0:06.290',-4.000
'0:06.291',-5.700
'0:06.292',-7.200
'0:06.293',-8.900
'0:06.294',-10.800
'0:06.295',-13.300
'0:06.296',-16.200
'0:06.297',-18.900
'0:06.298',-21.000
'0:06.299',-21.900
'0:06.300',-21.700
'0:06.301',-20.700
'0:06.302',-19.600
'0:06.303',-18.800
'0:06.304',-18.600
'0:06.305',-18.700
'0:06.306',-19.100
'0:06.307',-19.400
'0:06.308',-19.400
'0:06.309',-19.200
'0:06.310',-18.700
'0:06.311',-18.400
'0:06.312',-18.400
'0:06.313',-18.700
'0:06.314',-19.400
'0:06.315',-19.900
'0:06.316',-19.900
'0:06.317',-19.000
'0:06.318',-17.200
'0:06.319',-15.000
'0:06.320',-12.700
'0:06.321',-10.800
'0:06.322',-9.800
'0:06.323',-9.500
'0:06.324',-10.000
'0:06.325',-11.000
'0:06.326',-12.200
'0:06.327',-13.400
'0:06.328',-14.400
'0:06.329',-14.700
'0:06.330',-14.500
'0:06.331',-13.600
'0:06.332',-12.200
'0:06.333',-10.600
'0:06.334',-8.800
'0:06.335',-6.900
'0:06.336',-5.100
'0:06.337',-3.400
'0:06.338',-2.100
'0:06.339',-1.500
'0:06.340',-1.500
'0:06.341',-1.900
'0:06.342',-2.400
'0:06.343',-2.600
'0:06.344',-2.500
'0:06.345',-2.200
'0:06.346',-1.900
'0:06.347',-1.900
'0:06.348',-2.400
'0:06.349',-3.200
'0:06.350',-4.000
'0:06.351',-4.700
'0:06.352',-5.000
'0:06.353',-5.000
'0:06.354',-5.000
'0:06.355',-5.100
'0:06.356',-5.700
'0:06.357',-6.500
'0:06.358',-7.300
'0:06.359',-7.500
'0:06.360',-7.000
'0:06.361',-5.900
'0:06.362',-4.900
'0:06.363',-4.500
'0:06.364',-5.000
'0:06.365',-6.000
'0:06.366',-6.900
'0:06.367',-7.100
'0:06.368',-6.500
'0:06.369',-5.400
'0:06.370',-4.400
'0:06.371',-4.100
'0:06.372',-4.700
'0:06.373',-5.700
'0:06.374',-6.600
'0:06.375',-6.900
'0:06.376',-6.700
'0:06.377',-6.400
'0:06.378',-6.500
'0:06.379',-7.100
'0:06.380',-7.800
'0:06.381',-8.200
'0:06.382',-7.900
'0:06.383',-6.900
'0:06.384',-5.500
'0:06.385',-4.200
'0:06.386',-3.400
'0:06.387',-3.200
'0:06.388',-3.200
'0:06.389',-3.100
'0:06.390',-2.800
'0:06.391',-2.200
'0:06.392',-1.700
'0:06.393',-1.600
'0:06.394',-2.000
'0:06.395',-2.700
'0:06.396',-3.600
'0:06.397',-4.300
'0:06.398',-4.800
'0:06.399',-5.100
'0:06.400',-5.200
'0:06.401',-5.200
'0:06.402',-5.100
'0:06.403',-4.800
'0:06.404',-4.100
'0:06.405',-3.300
'0:06.406',-2.400
'0:06.407',-2.000
'0:06.408',-2.100
'0:06.409',-3.000
'0:06.410',-4.200
'0:06.411',-5.300
'0:06.412',-6.000
'0:06.413',-6.000
'0:06.414',-5.300
'0:06.415',-4.100
'0:06.416',-2.700
'0:06.417',-1.400
'0:06.418',-0.400
'0:06.419',0.000
'0:06.420',-0.100
'0:06.421',-0.500
'0:06.422',-1.000
'0:06.423',-1.200
'0:06.424',-1.000
'0:06.425',-0.400
'0:06.426',0.200
'0:06.427',0.400
'0:06.428',0.000
'0:06.429',-0.800
'0:06.430',-1.700
'0:06.431',-2.600
'0:06.432',-3.400
'0:06.433',-4.300
'0:06.434',-5.200
'0:06.435',-6.300
'0:06.436',-7.300
'0:06.437',-7.900
'0:06.438',-8.000
'0:06.439',-7.700
'0:06.440',-7.400
'0:06.441',-7.200
'0:06.442',-7.200
'0:06.443',-7.600
'0:06.444',-8.300
'0:06.445',-9.100
'0:06.446',-10.200
'0:06.447',-11.300
'0:06.448',-12.200
'0:06.449',-12.400
'0:06.450',-12.000
'0:06.451',-11.200
'0:06.452',-10.400
'0:06.453',-10.200
'0:06.454',-10.600
'0:06.455',-11.400
'0:06.456',-12.200
'0:06.457',-12.600
'0:06.458',-12.500
'0:06.459',-12.200
'0:06.460',-11.800
'0:06.461',-11.700
'0:06.462',-11.700
'0:06.463',-11.700
'0:06.464',-11.700
'0:06.465',-11.600
'0:06.466',-11.700
'0:06.467',-11.800
'0:06.468',-12.000
'0:06.469',-12.000
'0:06.470',-11.700
'0:06.471',-11.400
'0:06.472',-11.300
'0:06.473',-11.800
'0:06.474',-12.900
'0:06.475',-14.500
'0:06.476',-16.100
'0:06.477',-17.200
'0:06.478',-17.800
'0:06.479',-17.900
'0:06.480',-17.800
'0:06.481',-17.700
'0:06.482',-17.600
'0:06.483',-17.300
'0:06.484',-16.900
'0:06.485',-16.300
'0:06.486',-15.700
'0:06.487',-15.400
'0:06.488',-15.400
'0:06.489',-15.700
'0:06.490',-16.100
'0:06.491',-16.500
'0:06.492',-16.700
'0:06.493',-16.700
'0:06.494',-16.700
'0:06.495',-16.800
'0:06.496',-17.200
'0:06.497',-17.800
'0:06.498',-18.500
'0:06.499',-19.000
'0:06.500',-19.400
'0:06.501',-19.300
'0:06.502',-18.900
'0:06.503',-18.200
'0:06.504',-17.500
'0:06.505',-16.900
'0:06.506',-16.500
'0:06.507',-16.400
'0:06.508',-16.200
'0:06.509',-15.800
'0:06.510',-15.000
'0:06.511',-13.900
'0:06.512',-12.700
'0:06.513',-11.400
'0:06.514',-10.600
'0:06.515',-10.200
'0:06.516',-10.300
'0:06.517',-10.700
'0:06.518',-11.000
'0:06.519',-11.100
'0:06.520',-11.100
'0:06.521',-11.300
'0:06.522',-11.900
'0:06.523',-13.200
'0:06.524',-14.900
'0:06.525',-16.500
'0:06.526',-17.300
'0:06.527',-17.300
'0:06.528',-16.500
'0:06.529',-15.700
'0:06.530',-15.300
'0:06.531',-15.600
'0:06.532',-16.400
'0:06.533',-17.200
'0:06.534',-17.500
'0:06.535',-17.200
'0:06.536',-16.400
'0:06.537',-15.500
'0:06.538',-14.700
'0:06.539',-14.100
'0:06.540',-13.500
'0:06.541',-13.100
'0:06.542',-12.700
'0:06.543',-12.700
'0:06.544',-13.000
'0:06.545',-13.400
'0:06.546',-13.700
'0:06.547',-13.600
'0:06.548',-13.200
'0:06.549',-12.600
'0:06.550',-12.200
'0:06.551',-12.000
'0:06.552',-11.800
'0:06.553',-11.400
'0:06.554',-10.700
'0:06.555',-10.100
'0:06.556',-9.700
'0:06.557',-9.900
'0:06.558',-10.600
'0:06.559',-11.300
'0:06.560',-11.600
'0:06.561',-11.100
'0:06.562',-10.000
'0:06.563',-8.700
'0:06.564',-7.500
'0:06.565',-7.000
'0:06.566',-6.900
'0:06.567',-7.400
'0:06.568',-8.100
'0:06.569',-8.900
'0:06.570',-9.500
'0:06.571',-9.500
'0:06.572',-9.100
'0:06.573',-8.100
'0:06.574',-7.100
'0:06.575',-6.300
'0:06.576',-6.100
'0:06.577',-6.500
'0:06.578',-7.300
'0:06.579',-8.100
'0:06.580',-8.600
'0:06.581',-8.800
'0:06.582',-8.600
'0:06.583',-8.200
'0:06.584',-7.800
'0:06.585',-7.400
'0:06.586',-7.100
'0:06.587',-7.000
'0:06.588',-7.200
'0:06.589',-7.500
'0:06.590',-7.800
'0:06.591',-8.000
'0:06.592',-8.100
'0:06.593',-8.000
'0:06.594',-7.600
'0:06.595',-7.000
'0:06.596',-6.200
'0:06.597',-5.100
'0:06.598',-3.900
'0:06.599',-2.700
'0:06.600',-1.300
'0:06.601',0.000
'0:06.602',1.100
'0:06.603',1.800
'0:06.604',1.900
'0:06.605',1.600
'0:06.606',1.100
'0:06.607',1.000
'0:06.608',1.400
'0:06.609',2.200
'0:06.610',3.000
'0:06.611',3.400
'0:06.612',3.200
'0:06.613',2.500
'0:06.614',1.600
'0:06.615',0.700
'0:06.616',-0.200
'0:06.617',-1.200
'0:06.618',-2.400
'0:06.619',-3.600
'0:06.620',-4.300
'0:06.621',-4.300
'0:06.622',-3.800
'0:06.623',-3.200
'0:06.624',-2.900
'0:06.625',-3.200
'0:06.626',-4.000
'0:06.627',-4.800
'0:06.628',-5.100
'0:06.629',-4.900
'0:06.630',-4.500
'0:06.631',-4.400
'0:06.632',-4.800
'0:06.633',-5.900
'0:06.634',-7.000
'0:06.635',-7.700
'0:06.636',-7.600
'0:06.637',-6.900
'0:06.638',-5.900
'0:06.639',-5.200
'0:06.640',-5.200
'0:06.641',-5.500
'0:06.642',-5.900
'0:06.643',-5.600
'0:06.644',-4.400
'0:06.645',-2.500
'0:06.646',-0.500
'0:06.647',1.100
'0:06.648',2.000
'0:06.649',2.100
'0:06.650',1.700
'0:06.651',1.100
'0:06.652',0.400
'0:06.653',-0.300
'0:06.654',-1.000
'0:06.655',-1.400
'0:06.656',-1.500
'0:06.657',-1.300
'0:06.658',-0.800
'0:06.659',-0.600
'0:06.660',-0.900
'0:06.661',-1.900
'0:06.662',-3.200
'0:06.663',-4.400
'0:06.664',-5.100
'0:06.665',-5.300
'0:06.666',-5.200
'0:06.667',-5.100
'0:06.668',-5.200
'0:06.669',-5.700
'0:06.670',-6.000
'0:06.671',-6.000
'0:06.672',-5.300
'0:06.673',-4.000
'0:06.674',-2.600
'0:06.675',-1.300
'0:06.676',-0.600
'0:06.677',-0.500
'0:06.678',-0.500
'0:06.679',-0.300
'0:06.680',0.300
'0:06.681',1.200
'0:06.682',2.000
'0:06.683',2.100
'0:06.684',1.500
'0:06.685',0.600
'0:06.686',0.000
'0:06.687',0.400
'0:06.688',1.700
'0:06.689',3.600
'0:06.690',5.400
'0:06.691',6.300
'0:06.692',6.200
'0:06.693',5.400
'0:06.694',4.400
'0:06.695',3.700
'0:06.696',3.300
'0:06.697',3.000
'0:06.698',2.700
'0:06.699',2.300
'0:06.700',2.100
'0:06.701',2.300
'0:06.702',2.900
'0:06.703',3.900
'0:06.704',4.700
'0:06.705',4.800
'0:06.706',4.100
'0:06.707',2.900
'0:06.708',1.600
'0:06.709',0.800
'0:06.710',0.700
'0:06.711',1.300
'0:06.712',2.200
'0:06.713',2.900
'0:06.714',3.300
'0:06.715',3.700
'0:06.716',4.300
'0:06.717',5.600
'0:06.718',7.500
'0:06.719',9.700
'0:06.720',11.300
'0:06.721',12.100
'0:06.722',12.400
'0:06.723',13.200
'0:06.724',15.500
'0:06.725',20.000
'0:06.726',26.000
'0:06.727',32.000
'0:06.728',36.001
'0:06.729',36.601
'0:06.730',33.601
'0:06.731',28.000
'0:06.732',21.400
'0:06.733',15.500
'0:06.734',11.000
'0:06.735',8.000
'0:06.736',5.700
'0:06.737',3.400
'0:06.738',0.700
'0:06.739',-2.400
'0:06.740',-5.400
'0:06.741',-7.700
'0:06.742',-8.900
'0:06.743',-8.800
'0:06.744',-7.800
'0:06.745',-6.500
'0:06.746',-5.200
'0:06.747',-4.300
'0:06.748',-3.500
'0:06.749',-2.600
'0:06.750',-1.300
'0:06.751',0.400
'0:06.752',2.200
'0:06.753',3.500
