'Elapsed time','Abdomen_4'
'0:00.000',32.600
'0:00.001',35.401
'0:00.002',37.601
'0:00.003',39.001
'0:00.004',39.501
'0:00.005',39.301
'0:00.006',38.801
'0:00.007',38.201
'0:00.008',37.501
'0:00.009',36.601
'0:00.010',35.301
'0:00.011',33.501
'0:00.012',31.600
'0:00.013',30.000
'0:00.014',29.100
'0:00.015',29.100
'0:00.016',29.600
'0:00.017',30.100
'0:00.018',29.700
'0:00.019',27.800
'0:00.020',24.100
'0:00.021',18.800
'0:00.022',12.600
'0:00.023',6.200
'0:00.024',0.100
'0:00.025',-4.900
'0:00.026',-8.700
'0:00.027',-11.200
'0:00.028',-12.700
'0:00.029',-13.400
'0:00.030',-13.600
'0:00.031',-13.500
'0:00.032',-13.500
'0:00.033',-13.900
'0:00.034',-14.800
'0:00.035',-16.300
'0:00.036',-18.500
'0:00.037',-20.900
'0:00.038',-23.300
'0:00.039',-25.000
'0:00.040',-25.900
'0:00.041',-25.800
'0:00.042',-25.000
'0:00.043',-24.200
'0:00.044',-23.600
'0:00.045',-23.300
'0:00.046',-23.200
'0:00.047',-22.800
'0:00.048',-21.900
'0:00.049',-20.600
'0:00.050',-19.000
'0:00.051',-17.300
'0:00.052',-15.800
'0:00.053',-14.300
'0:00.054',-12.700
'0:00.055',-11.000
'0:00.056',-9.500
'0:00.057',-8.500
'0:00.058',-8.200
'0:00.059',-8.200
'0:00.060',-8.300
'0:00.061',-7.800
'0:00.062',-6.900
'0:00.063',-5.900
'0:00.064',-5.300
'0:00.065',-5.500
'0:00.066',-6.500
'0:00.067',-7.600
'0:00.068',-8.300
'0:00.069',-8.100
'0:00.070',-7.300
'0:00.071',-6.300
'0:00.072',-5.800
'0:00.073',-6.100
'0:00.074',-7.000
'0:00.075',-7.900
'0:00.076',-8.400
'0:00.077',-8.300
'0:00.078',-7.900
'0:00.079',-7.400
'0:00.080',-7.000
'0:00.081',-6.800
'0:00.082',-6.600
'0:00.083',-6.300
'0:00.084',-6.100
'0:00.085',-6.100
'0:00.086',-6.400
'0:00.087',-6.900
'0:00.088',-7.100
'0:00.089',-6.800
'0:00.090',-6.200
'0:00.091',-5.500
'0:00.092',-5.200
'0:00.093',-5.300
'0:00.094',-5.800
'0:00.095',-6.200
'0:00.096',-6.200
'0:00.097',-5.900
'0:00.098',-5.400
'0:00.099',-5.100
'0:00.100',-5.100
'0:00.101',-5.300
'0:00.102',-5.300
'0:00.103',-5.000
'0:00.104',-4.300
'0:00.105',-3.700
'0:00.106',-3.500
'0:00.107',-3.800
'0:00.108',-4.600
'0:00.109',-5.600
'0:00.110',-6.200
'0:00.111',-6.300
'0:00.112',-5.800
'0:00.113',-4.800
'0:00.114',-3.700
'0:00.115',-2.900
'0:00.116',-2.400
'0:00.117',-2.300
'0:00.118',-2.400
'0:00.119',-2.300
'0:00.120',-1.800
'0:00.121',-0.800
'0:00.122',0.300
'0:00.123',1.300
'0:00.124',1.600
'0:00.125',1.300
'0:00.126',0.500
'0:00.127',-0.200
'0:00.128',-0.600
'0:00.129',-0.300
'0:00.130',0.300
'0:00.131',1.000
'0:00.132',1.500
'0:00.133',1.600
'0:00.134',1.300
'0:00.135',0.800
'0:00.136',0.200
'0:00.137',-0.100
'0:00.138',-0.300
'0:00.139',-0.100
'0:00.140',0.100
'0:00.141',0.400
'0:00.142',0.600
'0:00.143',0.700
'0:00.144',0.700
'0:00.145',0.500
'0:00.146',0.400
'0:00.147',0.300
'0:00.148',0.300
'0:00.149',0.400
'0:00.150',0.800
'0:00.151',1.100
'0:00.152',1.200
'0:00.153',1.100
'0:00.154',0.500
'0:00.155',-0.300
'0:00.156',-1.000
'0:00.157',-1.400
'0:00.158',-1.300
'0:00.159',-1.100
'0:00.160',-1.000
'0:00.161',-1.300
'0:00.162',-1.900
'0:00.163',-2.500
'0:00.164',-2.300
'0:00.165',-1.200
'0:00.166',0.800
'0:00.167',3.000
'0:00.168',4.900
'0:00.169',6.200
'0:00.170',7.200
'0:00.171',8.200
'0:00.172',9.900
'0:00.173',12.500
'0:00.174',16.300
'0:00.175',21.100
'0:00.176',26.600
'0:00.177',32.300
'0:00.178',37.601
'0:00.179',41.301
'0:00.180',42.901
'0:00.181',41.801
'0:00.182',38.401
'0:00.183',33.701
'0:00.184',28.600
'0:00.185',23.800
'0:00.186',19.300
'0:00.187',14.900
'0:00.188',10.100
'0:00.189',4.700
'0:00.190',-0.700
'0:00.191',-5.500
'0:00.192',-8.700
'0:00.193',-10.100
'0:00.194',-9.800
'0:00.195',-8.400
'0:00.196',-6.600
'0:00.197',-5.100
'0:00.198',-3.900
'0:00.199',-2.800
'0:00.200',-1.400
'0:00.201',0.500
'0:00.202',2.700
'0:00.203',4.700
'0:00.204',6.300
'0:00.205',7.200
'0:00.206',7.600
'0:00.207',7.700
'0:00.208',8.000
'0:00.209',8.200
'0:00.210',8.300
'0:00.211',8.000
'0:00.212',7.300
'0:00.213',6.700
'0:00.214',6.500
'0:00.215',7.000
'0:00.216',8.100
'0:00.217',9.300
'0:00.218',10.200
'0:00.219',10.600
'0:00.220',10.600
'0:00.221',10.800
'0:00.222',11.500
'0:00.223',12.500
'0:00.224',13.600
'0:00.225',14.500
'0:00.226',14.900
'0:00.227',14.900
'0:00.228',14.800
'0:00.229',14.900
'0:00.230',15.300
'0:00.231',15.600
'0:00.232',15.600
'0:00.233',15.400
'0:00.234',14.900
'0:00.235',14.500
'0:00.236',14.400
'0:00.237',14.500
'0:00.238',14.700
'0:00.239',14.800
'0:00.240',14.600
'0:00.241',14.000
'0:00.242',13.100
'0:00.243',12.100
'0:00.244',11.200
'0:00.245',10.700
'0:00.246',10.500
'0:00.247',10.700
'0:00.248',11.000
'0:00.249',11.200
'0:00.250',11.200
'0:00.251',11.000
'0:00.252',10.600
'0:00.253',10.300
'0:00.254',10.200
'0:00.255',10.300
'0:00.256',10.500
'0:00.257',10.800
'0:00.258',11.100
'0:00.259',11.400
'0:00.260',11.800
'0:00.261',12.200
'0:00.262',12.700
'0:00.263',13.200
'0:00.264',13.400
'0:00.265',13.300
'0:00.266',12.800
'0:00.267',12.100
'0:00.268',11.500
'0:00.269',11.300
'0:00.270',11.400
'0:00.271',11.800
'0:00.272',11.900
'0:00.273',11.600
'0:00.274',10.900
'0:00.275',10.100
'0:00.276',9.400
'0:00.277',9.200
'0:00.278',9.500
'0:00.279',9.900
'0:00.280',10.200
'0:00.281',10.200
'0:00.282',9.900
'0:00.283',9.500
'0:00.284',9.100
'0:00.285',8.800
'0:00.286',8.500
'0:00.287',8.200
'0:00.288',7.900
'0:00.289',7.600
'0:00.290',7.300
'0:00.291',7.100
'0:00.292',6.700
'0:00.293',6.200
'0:00.294',5.400
'0:00.295',4.600
'0:00.296',3.800
'0:00.297',3.300
'0:00.298',3.000
'0:00.299',3.100
'0:00.300',3.400
'0:00.301',3.500
'0:00.302',3.200
'0:00.303',2.500
'0:00.304',1.400
'0:00.305',0.400
'0:00.306',-0.200
'0:00.307',-0.400
'0:00.308',-0.400
'0:00.309',-0.600
'0:00.310',-1.200
'0:00.311',-2.200
'0:00.312',-3.100
'0:00.313',-3.300
'0:00.314',-2.800
'0:00.315',-1.800
'0:00.316',-1.000
'0:00.317',-0.900
'0:00.318',-1.400
'0:00.319',-2.100
'0:00.320',-2.400
'0:00.321',-2.100
'0:00.322',-1.100
'0:00.323',0.000
'0:00.324',0.900
'0:00.325',1.300
'0:00.326',1.300
'0:00.327',1.300
'0:00.328',1.300
'0:00.329',1.500
'0:00.330',1.800
'0:00.331',2.000
'0:00.332',1.900
'0:00.333',1.700
'0:00.334',1.300
'0:00.335',0.800
'0:00.336',0.400
'0:00.337',0.300
'0:00.338',0.400
'0:00.339',0.500
'0:00.340',0.200
'0:00.341',-0.700
'0:00.342',-2.100
'0:00.343',-3.700
'0:00.344',-4.900
'0:00.345',-5.000
'0:00.346',-4.200
'0:00.347',-2.800
'0:00.348',-1.700
'0:00.349',-1.400
'0:00.350',-2.000
'0:00.351',-3.200
'0:00.352',-4.300
'0:00.353',-4.800
'0:00.354',-4.700
'0:00.355',-4.200
'0:00.356',-3.900
'0:00.357',-4.100
'0:00.358',-4.700
'0:00.359',-5.500
'0:00.360',-6.000
'0:00.361',-6.100
'0:00.362',-5.800
'0:00.363',-5.500
'0:00.364',-5.400
'0:00.365',-5.500
'0:00.366',-5.700
'0:00.367',-5.700
'0:00.368',-5.500
'0:00.369',-5.100
'0:00.370',-4.700
'0:00.371',-4.500
'0:00.372',-4.500
'0:00.373',-4.800
'0:00.374',-5.400
'0:00.375',-6.200
'0:00.376',-7.100
'0:00.377',-7.900
'0:00.378',-8.200
'0:00.379',-8.200
'0:00.380',-7.900
'0:00.381',-7.600
'0:00.382',-7.700
'0:00.383',-8.100
'0:00.384',-8.600
'0:00.385',-8.800
'0:00.386',-8.600
'0:00.387',-8.000
'0:00.388',-7.300
'0:00.389',-7.000
'0:00.390',-7.200
'0:00.391',-7.700
'0:00.392',-8.100
'0:00.393',-8.300
'0:00.394',-8.000
'0:00.395',-7.500
'0:00.396',-7.000
'0:00.397',-6.600
'0:00.398',-6.300
'0:00.399',-6.000
'0:00.400',-5.500
'0:00.401',-5.000
'0:00.402',-4.500
'0:00.403',-4.300
'0:00.404',-4.600
'0:00.405',-5.300
'0:00.406',-6.100
'0:00.407',-6.700
'0:00.408',-6.800
'0:00.409',-6.500
'0:00.410',-5.800
'0:00.411',-5.200
'0:00.412',-5.100
'0:00.413',-5.500
'0:00.414',-6.400
'0:00.415',-7.500
'0:00.416',-8.100
'0:00.417',-8.200
'0:00.418',-7.700
'0:00.419',-6.800
'0:00.420',-5.800
'0:00.421',-5.100
'0:00.422',-4.400
'0:00.423',-3.900
'0:00.424',-3.400
'0:00.425',-2.900
'0:00.426',-2.800
'0:00.427',-3.200
'0:00.428',-4.000
'0:00.429',-5.100
'0:00.430',-6.000
'0:00.431',-6.500
'0:00.432',-6.400
'0:00.433',-6.100
'0:00.434',-5.800
'0:00.435',-5.700
'0:00.436',-5.700
'0:00.437',-5.800
'0:00.438',-5.500
'0:00.439',-4.700
'0:00.440',-3.600
'0:00.441',-2.600
'0:00.442',-1.900
'0:00.443',-1.800
'0:00.444',-2.100
'0:00.445',-2.800
'0:00.446',-3.300
'0:00.447',-3.700
'0:00.448',-3.600
'0:00.449',-3.300
'0:00.450',-2.600
'0:00.451',-1.800
'0:00.452',-0.900
'0:00.453',-0.100
'0:00.454',0.400
'0:00.455',0.500
'0:00.456',0.200
'0:00.457',-0.500
'0:00.458',-1.100
'0:00.459',-1.500
'0:00.460',-1.400
'0:00.461',-1.100
'0:00.462',-0.800
'0:00.463',-0.700
'0:00.464',-1.300
'0:00.465',-2.300
'0:00.466',-3.600
'0:00.467',-4.600
'0:00.468',-5.100
'0:00.469',-5.000
'0:00.470',-4.600
'0:00.471',-4.300
'0:00.472',-4.500
'0:00.473',-5.100
'0:00.474',-5.900
'0:00.475',-6.400
'0:00.476',-6.400
'0:00.477',-6.000
'0:00.478',-5.500
'0:00.479',-5.200
'0:00.480',-5.000
'0:00.481',-4.800
'0:00.482',-4.500
'0:00.483',-4.000
'0:00.484',-3.400
'0:00.485',-3.100
'0:00.486',-3.300
'0:00.487',-3.900
'0:00.488',-4.700
'0:00.489',-5.500
'0:00.490',-6.100
'0:00.491',-6.400
'0:00.492',-6.400
'0:00.493',-6.300
'0:00.494',-5.800
'0:00.495',-5.100
'0:00.496',-4.100
'0:00.497',-3.100
'0:00.498',-2.200
'0:00.499',-1.900
'0:00.500',-2.200
'0:00.501',-3.000
'0:00.502',-3.800
'0:00.503',-4.400
'0:00.504',-4.600
'0:00.505',-4.300
'0:00.506',-3.900
'0:00.507',-3.600
'0:00.508',-3.500
'0:00.509',-3.600
'0:00.510',-3.800
'0:00.511',-3.800
'0:00.512',-3.600
'0:00.513',-3.100
'0:00.514',-2.600
'0:00.515',-2.200
'0:00.516',-2.000
'0:00.517',-1.800
'0:00.518',-1.600
'0:00.519',-1.300
'0:00.520',-1.200
'0:00.521',-1.200
'0:00.522',-1.700
'0:00.523',-2.500
'0:00.524',-3.700
'0:00.525',-4.800
'0:00.526',-5.500
'0:00.527',-5.800
'0:00.528',-5.600
'0:00.529',-5.200
'0:00.530',-4.800
'0:00.531',-4.500
'0:00.532',-4.400
'0:00.533',-4.300
'0:00.534',-4.400
'0:00.535',-4.400
'0:00.536',-4.600
'0:00.537',-4.700
'0:00.538',-4.800
'0:00.539',-4.600
'0:00.540',-4.000
'0:00.541',-3.000
'0:00.542',-1.900
'0:00.543',-1.000
'0:00.544',-0.300
'0:00.545',0.100
'0:00.546',0.400
'0:00.547',0.900
'0:00.548',1.700
'0:00.549',2.500
'0:00.550',2.900
'0:00.551',2.400
'0:00.552',1.100
'0:00.553',-0.800
'0:00.554',-2.500
'0:00.555',-3.400
'0:00.556',-3.300
'0:00.557',-2.500
'0:00.558',-1.500
'0:00.559',-0.700
'0:00.560',-0.600
'0:00.561',-1.100
'0:00.562',-2.000
'0:00.563',-2.900
'0:00.564',-3.600
'0:00.565',-4.100
'0:00.566',-4.300
'0:00.567',-4.400
'0:00.568',-4.300
'0:00.569',-4.100
'0:00.570',-3.900
'0:00.571',-3.700
'0:00.572',-3.700
'0:00.573',-3.700
'0:00.574',-3.900
'0:00.575',-4.100
'0:00.576',-4.300
'0:00.577',-4.300
'0:00.578',-4.300
'0:00.579',-4.100
'0:00.580',-3.700
'0:00.581',-3.100
'0:00.582',-2.600
'0:00.583',-2.200
'0:00.584',-2.300
'0:00.585',-2.900
'0:00.586',-3.800
'0:00.587',-4.800
'0:00.588',-5.500
'0:00.589',-5.700
'0:00.590',-5.300
'0:00.591',-4.600
'0:00.592',-3.800
'0:00.593',-3.200
'0:00.594',-2.900
'0:00.595',-2.700
'0:00.596',-2.700
'0:00.597',-2.600
'0:00.598',-2.500
'0:00.599',-2.200
'0:00.600',-1.900
'0:00.601',-1.700
'0:00.602',-1.500
'0:00.603',-1.400
'0:00.604',-1.400
'0:00.605',-1.500
'0:00.606',-1.500
'0:00.607',-1.500
'0:00.608',-1.500
'0:00.609',-1.500
'0:00.610',-1.700
'0:00.611',-1.900
'0:00.612',-2.100
'0:00.613',-2.000
'0:00.614',-1.500
'0:00.615',-0.900
'0:00.616',-0.400
'0:00.617',-0.300
'0:00.618',-0.700
'0:00.619',-1.400
'0:00.620',-2.000
'0:00.621',-2.200
'0:00.622',-2.000
'0:00.623',-1.500
'0:00.624',-1.100
'0:00.625',-0.900
'0:00.626',-1.200
'0:00.627',-1.800
'0:00.628',-2.800
'0:00.629',-4.000
'0:00.630',-5.300
'0:00.631',-6.600
'0:00.632',-7.700
'0:00.633',-8.400
'0:00.634',-8.400
'0:00.635',-7.800
'0:00.636',-6.800
'0:00.637',-5.700
'0:00.638',-4.700
'0:00.639',-3.800
'0:00.640',-2.700
'0:00.641',-0.800
'0:00.642',2.500
'0:00.643',7.500
'0:00.644',13.900
'0:00.645',20.800
'0:00.646',26.600
'0:00.647',30.100
'0:00.648',30.700
'0:00.649',28.600
'0:00.650',24.900
'0:00.651',20.800
'0:00.652',16.800
'0:00.653',13.200
'0:00.654',9.500
'0:00.655',5.300
'0:00.656',0.600
'0:00.657',-4.400
'0:00.658',-9.100
'0:00.659',-13.000
'0:00.660',-15.800
'0:00.661',-17.300
'0:00.662',-17.600
'0:00.663',-16.500
'0:00.664',-14.300
'0:00.665',-11.300
'0:00.666',-8.300
'0:00.667',-5.700
'0:00.668',-3.700
'0:00.669',-2.300
'0:00.670',-1.100
'0:00.671',0.000
'0:00.672',0.900
'0:00.673',1.300
'0:00.674',1.000
'0:00.675',0.200
'0:00.676',-0.600
'0:00.677',-0.700
'0:00.678',0.200
'0:00.679',2.000
'0:00.680',4.100
'0:00.681',5.900
'0:00.682',7.300
'0:00.683',8.700
'0:00.684',10.400
'0:00.685',12.700
'0:00.686',15.200
'0:00.687',17.700
'0:00.688',19.800
'0:00.689',21.700
'0:00.690',23.600
'0:00.691',26.100
'0:00.692',29.200
'0:00.693',32.400
'0:00.694',35.301
'0:00.695',37.601
'0:00.696',39.301
'0:00.697',40.801
'0:00.698',42.501
'0:00.699',44.101
'0:00.700',45.401
'0:00.701',45.801
'0:00.702',44.901
'0:00.703',43.101
'0:00.704',40.601
'0:00.705',38.201
'0:00.706',36.401
'0:00.707',35.201
'0:00.708',34.701
'0:00.709',34.301
'0:00.710',33.801
'0:00.711',32.600
'0:00.712',30.400
'0:00.713',27.100
'0:00.714',22.900
'0:00.715',18.100
'0:00.716',13.200
'0:00.717',8.100
'0:00.718',2.900
'0:00.719',-2.700
'0:00.720',-8.400
'0:00.721',-13.800
'0:00.722',-18.200
'0:00.723',-20.800
'0:00.724',-21.700
'0:00.725',-21.400
'0:00.726',-20.600
'0:00.727',-20.500
'0:00.728',-21.200
'0:00.729',-22.700
'0:00.730',-24.500
'0:00.731',-26.000
'0:00.732',-27.000
'0:00.733',-27.400
'0:00.734',-27.500
'0:00.735',-27.400
'0:00.736',-27.200
'0:00.737',-27.100
'0:00.738',-26.800
'0:00.739',-26.300
'0:00.740',-25.300
'0:00.741',-23.900
'0:00.742',-22.000
'0:00.743',-20.100
'0:00.744',-18.500
'0:00.745',-17.400
'0:00.746',-16.600
'0:00.747',-15.900
'0:00.748',-15.000
'0:00.749',-13.700
'0:00.750',-12.100
'0:00.751',-10.300
'0:00.752',-8.600
'0:00.753',-7.000
'0:00.754',-5.600
'0:00.755',-4.400
'0:00.756',-3.500
'0:00.757',-2.900
'0:00.758',-2.800
'0:00.759',-3.100
'0:00.760',-3.700
'0:00.761',-4.400
'0:00.762',-5.000
'0:00.763',-5.400
'0:00.764',-5.500
'0:00.765',-5.400
'0:00.766',-5.100
'0:00.767',-4.600
'0:00.768',-4.200
'0:00.769',-4.000
'0:00.770',-4.000
'0:00.771',-3.900
'0:00.772',-3.700
'0:00.773',-3.000
'0:00.774',-2.000
'0:00.775',-1.000
'0:00.776',-0.100
'0:00.777',0.400
'0:00.778',0.700
'0:00.779',1.000
'0:00.780',1.400
'0:00.781',2.100
'0:00.782',2.700
'0:00.783',3.100
'0:00.784',3.000
'0:00.785',2.300
'0:00.786',1.300
'0:00.787',0.000
'0:00.788',-1.400
'0:00.789',-2.600
'0:00.790',-3.500
'0:00.791',-4.000
'0:00.792',-4.100
'0:00.793',-3.700
'0:00.794',-2.800
'0:00.795',-1.900
'0:00.796',-1.200
'0:00.797',-1.000
'0:00.798',-1.300
'0:00.799',-2.000
'0:00.800',-2.700
'0:00.801',-3.200
'0:00.802',-3.500
'0:00.803',-3.600
'0:00.804',-3.600
'0:00.805',-3.500
'0:00.806',-3.400
'0:00.807',-2.900
'0:00.808',-2.100
'0:00.809',-0.900
'0:00.810',0.300
'0:00.811',1.100
'0:00.812',1.200
'0:00.813',0.800
'0:00.814',0.000
'0:00.815',-0.600
'0:00.816',-0.900
'0:00.817',-0.600
'0:00.818',-0.200
'0:00.819',0.400
'0:00.820',0.700
'0:00.821',0.800
'0:00.822',0.600
'0:00.823',0.400
'0:00.824',0.200
'0:00.825',0.200
'0:00.826',0.500
'0:00.827',0.800
'0:00.828',1.000
'0:00.829',0.900
'0:00.830',0.600
'0:00.831',0.100
'0:00.832',-0.400
'0:00.833',-0.700
'0:00.834',-0.800
'0:00.835',-0.800
'0:00.836',-0.700
'0:00.837',-0.800
'0:00.838',-1.100
'0:00.839',-1.800
'0:00.840',-2.500
'0:00.841',-3.000
'0:00.842',-3.100
'0:00.843',-2.600
'0:00.844',-1.700
'0:00.845',-0.900
'0:00.846',-0.600
'0:00.847',-0.800
'0:00.848',-1.500
'0:00.849',-2.000
'0:00.850',-1.700
'0:00.851',-0.500
'0:00.852',1.100
'0:00.853',2.500
'0:00.854',3.100
'0:00.855',2.800
'0:00.856',2.100
'0:00.857',1.600
'0:00.858',1.800
'0:00.859',2.500
'0:00.860',3.600
'0:00.861',4.500
'0:00.862',4.900
'0:00.863',5.100
'0:00.864',5.400
'0:00.865',5.700
'0:00.866',6.000
'0:00.867',6.100
'0:00.868',5.800
'0:00.869',5.300
'0:00.870',4.800
'0:00.871',4.700
'0:00.872',5.000
'0:00.873',5.500
'0:00.874',5.800
'0:00.875',6.000
'0:00.876',6.200
'0:00.877',6.600
'0:00.878',7.400
'0:00.879',8.200
'0:00.880',8.900
'0:00.881',8.900
'0:00.882',8.400
'0:00.883',7.700
'0:00.884',7.100
'0:00.885',7.100
'0:00.886',8.000
'0:00.887',9.400
'0:00.888',11.100
'0:00.889',12.600
'0:00.890',13.700
'0:00.891',14.500
'0:00.892',15.000
'0:00.893',15.200
'0:00.894',15.200
'0:00.895',14.800
'0:00.896',13.800
'0:00.897',12.400
'0:00.898',11.000
'0:00.899',10.100
'0:00.900',9.900
'0:00.901',10.600
'0:00.902',11.400
'0:00.903',12.100
'0:00.904',12.100
'0:00.905',11.700
'0:00.906',11.400
'0:00.907',11.400
'0:00.908',11.800
'0:00.909',12.200
'0:00.910',12.300
'0:00.911',11.700
'0:00.912',10.900
'0:00.913',10.400
'0:00.914',10.600
'0:00.915',11.500
'0:00.916',12.600
'0:00.917',13.400
'0:00.918',13.600
'0:00.919',13.300
'0:00.920',13.100
'0:00.921',13.100
'0:00.922',13.500
'0:00.923',13.800
'0:00.924',13.600
'0:00.925',12.700
'0:00.926',11.600
'0:00.927',10.900
'0:00.928',10.900
'0:00.929',11.900
'0:00.930',13.300
'0:00.931',14.400
'0:00.932',14.800
'0:00.933',14.500
'0:00.934',13.700
'0:00.935',13.000
'0:00.936',12.800
'0:00.937',13.100
'0:00.938',13.700
'0:00.939',14.100
'0:00.940',14.100
'0:00.941',13.800
'0:00.942',13.400
'0:00.943',13.300
'0:00.944',13.400
'0:00.945',13.700
'0:00.946',14.000
'0:00.947',14.000
'0:00.948',13.800
'0:00.949',13.400
'0:00.950',13.000
'0:00.951',12.900
'0:00.952',13.000
'0:00.953',13.200
'0:00.954',13.600
'0:00.955',13.800
'0:00.956',13.700
'0:00.957',13.200
'0:00.958',12.500
'0:00.959',11.600
'0:00.960',10.700
'0:00.961',10.100
'0:00.962',9.800
'0:00.963',9.800
'0:00.964',10.000
'0:00.965',10.200
'0:00.966',10.100
'0:00.967',9.800
'0:00.968',9.300
'0:00.969',8.900
'0:00.970',8.700
'0:00.971',8.900
'0:00.972',9.400
'0:00.973',9.800
'0:00.974',10.000
'0:00.975',9.800
'0:00.976',9.500
'0:00.977',9.400
'0:00.978',9.600
'0:00.979',10.100
'0:00.980',10.700
'0:00.981',10.900
'0:00.982',10.500
'0:00.983',9.500
'0:00.984',8.200
'0:00.985',7.000
'0:00.986',6.000
'0:00.987',5.400
'0:00.988',4.800
'0:00.989',4.000
'0:00.990',3.100
'0:00.991',2.400
'0:00.992',1.800
'0:00.993',1.600
'0:00.994',1.600
'0:00.995',1.600
'0:00.996',1.500
'0:00.997',1.300
'0:00.998',1.200
'0:00.999',1.200
'0:01.000',1.300
'0:01.001',1.100
'0:01.002',0.700
'0:01.003',0.300
'0:01.004',0.000
'0:01.005',0.400
'0:01.006',1.300
'0:01.007',2.400
'0:01.008',3.200
'0:01.009',3.300
'0:01.010',2.600
'0:01.011',1.500
'0:01.012',0.200
'0:01.013',-0.900
'0:01.014',-1.600
'0:01.015',-2.200
'0:01.016',-2.900
'0:01.017',-3.600
'0:01.018',-4.500
'0:01.019',-5.300
'0:01.020',-6.100
'0:01.021',-6.600
'0:01.022',-6.800
'0:01.023',-6.800
'0:01.024',-6.500
'0:01.025',-5.900
'0:01.026',-5.000
'0:01.027',-3.800
'0:01.028',-2.600
'0:01.029',-1.600
'0:01.030',-1.000
'0:01.031',-1.100
'0:01.032',-1.900
'0:01.033',-3.100
'0:01.034',-4.500
'0:01.035',-5.700
'0:01.036',-6.500
'0:01.037',-6.600
'0:01.038',-6.100
'0:01.039',-5.200
'0:01.040',-4.200
'0:01.041',-3.100
'0:01.042',-2.400
'0:01.043',-2.000
'0:01.044',-2.000
'0:01.045',-2.100
'0:01.046',-2.100
'0:01.047',-1.600
'0:01.048',-0.800
'0:01.049',0.300
'0:01.050',1.500
'0:01.051',2.400
'0:01.052',2.700
'0:01.053',2.600
'0:01.054',1.900
'0:01.055',1.000
'0:01.056',0.200
'0:01.057',-0.300
'0:01.058',-0.300
'0:01.059',0.100
'0:01.060',0.700
'0:01.061',1.100
'0:01.062',1.200
'0:01.063',0.700
'0:01.064',0.000
'0:01.065',-0.700
'0:01.066',-1.200
'0:01.067',-1.200
'0:01.068',-0.900
'0:01.069',-0.400
'0:01.070',0.200
'0:01.071',0.600
'0:01.072',1.000
'0:01.073',1.400
'0:01.074',1.700
'0:01.075',2.000
'0:01.076',2.000
'0:01.077',1.800
'0:01.078',1.300
'0:01.079',0.700
'0:01.080',0.300
'0:01.081',0.300
'0:01.082',0.900
'0:01.083',1.800
'0:01.084',2.800
'0:01.085',3.300
'0:01.086',3.000
'0:01.087',1.900
'0:01.088',0.500
'0:01.089',-0.900
'0:01.090',-1.700
'0:01.091',-1.900
'0:01.092',-1.700
'0:01.093',-1.800
'0:01.094',-2.400
'0:01.095',-3.600
'0:01.096',-5.000
'0:01.097',-6.100
'0:01.098',-6.400
'0:01.099',-6.000
'0:01.100',-5.100
'0:01.101',-4.100
'0:01.102',-3.200
'0:01.103',-2.200
'0:01.104',-1.100
'0:01.105',0.400
'0:01.106',2.600
'0:01.107',5.500
'0:01.108',9.300
'0:01.109',14.100
'0:01.110',19.700
'0:01.111',25.600
'0:01.112',31.000
'0:01.113',34.701
'0:01.114',36.201
'0:01.115',35.101
'0:01.116',32.100
'0:01.117',28.000
'0:01.118',23.600
'0:01.119',19.400
'0:01.120',15.300
'0:01.121',10.900
'0:01.122',5.700
'0:01.123',-0.300
'0:01.124',-6.700
'0:01.125',-12.600
'0:01.126',-17.100
'0:01.127',-19.600
'0:01.128',-20.100
'0:01.129',-19.000
'0:01.130',-17.300
'0:01.131',-15.500
'0:01.132',-14.200
'0:01.133',-13.000
'0:01.134',-11.900
'0:01.135',-10.600
'0:01.136',-9.100
'0:01.137',-7.900
'0:01.138',-7.100
'0:01.139',-6.700
'0:01.140',-6.600
'0:01.141',-6.400
'0:01.142',-6.000
'0:01.143',-5.500
'0:01.144',-5.200
'0:01.145',-5.200
'0:01.146',-5.500
'0:01.147',-6.100
'0:01.148',-6.600
'0:01.149',-6.800
'0:01.150',-6.900
'0:01.151',-6.800
'0:01.152',-6.600
'0:01.153',-6.300
'0:01.154',-5.800
'0:01.155',-5.300
'0:01.156',-4.800
'0:01.157',-4.500
'0:01.158',-4.400
'0:01.159',-4.600
'0:01.160',-4.800
'0:01.161',-4.900
'0:01.162',-4.900
'0:01.163',-4.800
'0:01.164',-4.900
'0:01.165',-5.100
'0:01.166',-5.400
'0:01.167',-5.600
'0:01.168',-5.600
'0:01.169',-5.300
'0:01.170',-5.000
'0:01.171',-4.900
'0:01.172',-5.300
'0:01.173',-6.100
'0:01.174',-6.900
'0:01.175',-7.500
'0:01.176',-7.500
'0:01.177',-7.200
'0:01.178',-7.000
'0:01.179',-7.200
'0:01.180',-7.900
'0:01.181',-8.900
'0:01.182',-9.700
'0:01.183',-9.800
'0:01.184',-9.100
'0:01.185',-7.700
'0:01.186',-6.200
'0:01.187',-5.100
'0:01.188',-4.700
'0:01.189',-5.100
'0:01.190',-6.000
'0:01.191',-6.900
'0:01.192',-7.400
'0:01.193',-7.400
'0:01.194',-7.000
'0:01.195',-6.500
'0:01.196',-6.300
'0:01.197',-6.500
'0:01.198',-7.000
'0:01.199',-7.700
'0:01.200',-8.100
'0:01.201',-8.000
'0:01.202',-7.500
'0:01.203',-6.700
'0:01.204',-6.000
'0:01.205',-5.500
'0:01.206',-5.200
'0:01.207',-4.900
'0:01.208',-4.600
'0:01.209',-4.300
'0:01.210',-4.000
'0:01.211',-3.900
'0:01.212',-3.900
'0:01.213',-4.000
'0:01.214',-3.900
'0:01.215',-3.600
'0:01.216',-3.200
'0:01.217',-3.100
'0:01.218',-3.700
'0:01.219',-5.000
'0:01.220',-6.700
'0:01.221',-8.200
'0:01.222',-9.000
'0:01.223',-8.800
'0:01.224',-7.700
'0:01.225',-6.200
'0:01.226',-4.900
'0:01.227',-4.100
'0:01.228',-4.100
'0:01.229',-4.400
'0:01.230',-4.700
'0:01.231',-4.800
'0:01.232',-4.500
'0:01.233',-4.000
'0:01.234',-3.700
'0:01.235',-3.700
'0:01.236',-3.900
'0:01.237',-4.100
'0:01.238',-4.000
'0:01.239',-3.600
'0:01.240',-3.000
'0:01.241',-2.600
'0:01.242',-2.500
'0:01.243',-2.800
'0:01.244',-3.200
'0:01.245',-3.200
'0:01.246',-2.700
'0:01.247',-1.800
'0:01.248',-1.000
'0:01.249',-0.700
'0:01.250',-1.100
'0:01.251',-1.800
'0:01.252',-2.500
'0:01.253',-2.500
'0:01.254',-1.900
'0:01.255',-0.900
'0:01.256',0.000
'0:01.257',0.200
'0:01.258',-0.300
'0:01.259',-1.100
'0:01.260',-1.700
'0:01.261',-1.800
'0:01.262',-1.400
'0:01.263',-0.800
'0:01.264',-0.300
'0:01.265',-0.200
'0:01.266',-0.400
'0:01.267',-0.700
'0:01.268',-0.800
'0:01.269',-0.700
'0:01.270',-0.500
'0:01.271',-0.500
'0:01.272',-0.900
'0:01.273',-1.600
'0:01.274',-2.400
'0:01.275',-2.900
'0:01.276',-2.700
'0:01.277',-1.900
'0:01.278',-0.500
'0:01.279',1.100
'0:01.280',2.300
'0:01.281',2.800
'0:01.282',2.500
'0:01.283',1.800
'0:01.284',1.200
'0:01.285',0.900
'0:01.286',1.200
'0:01.287',1.800
'0:01.288',2.300
'0:01.289',2.300
'0:01.290',1.900
'0:01.291',1.200
'0:01.292',0.700
'0:01.293',0.700
'0:01.294',1.000
'0:01.295',1.300
'0:01.296',1.500
'0:01.297',1.400
'0:01.298',1.100
'0:01.299',1.200
'0:01.300',1.800
'0:01.301',2.800
'0:01.302',3.900
'0:01.303',4.600
'0:01.304',4.400
'0:01.305',3.300
'0:01.306',1.800
'0:01.307',0.500
'0:01.308',-0.200
'0:01.309',-0.200
'0:01.310',0.200
'0:01.311',0.500
'0:01.312',0.100
'0:01.313',-0.900
'0:01.314',-2.300
'0:01.315',-3.300
'0:01.316',-3.500
'0:01.317',-2.600
'0:01.318',-0.800
'0:01.319',1.400
'0:01.320',3.500
'0:01.321',5.100
'0:01.322',6.000
'0:01.323',5.900
'0:01.324',5.100
'0:01.325',3.600
'0:01.326',1.700
'0:01.327',-0.300
'0:01.328',-2.000
'0:01.329',-3.200
'0:01.330',-3.700
'0:01.331',-3.900
'0:01.332',-4.200
'0:01.333',-4.700
'0:01.334',-5.300
'0:01.335',-5.900
'0:01.336',-6.100
'0:01.337',-5.800
'0:01.338',-5.200
'0:01.339',-4.400
'0:01.340',-3.900
'0:01.341',-3.500
'0:01.342',-3.300
'0:01.343',-3.100
'0:01.344',-2.900
'0:01.345',-2.700
'0:01.346',-2.600
'0:01.347',-2.500
'0:01.348',-2.400
'0:01.349',-2.300
'0:01.350',-2.300
'0:01.351',-2.700
'0:01.352',-3.600
'0:01.353',-4.800
'0:01.354',-5.800
'0:01.355',-6.200
'0:01.356',-6.000
'0:01.357',-5.200
'0:01.358',-4.500
'0:01.359',-4.100
'0:01.360',-4.300
'0:01.361',-4.700
'0:01.362',-5.100
'0:01.363',-4.900
'0:01.364',-4.300
'0:01.365',-3.700
'0:01.366',-3.200
'0:01.367',-3.200
'0:01.368',-3.500
'0:01.369',-3.700
'0:01.370',-3.700
'0:01.371',-3.200
'0:01.372',-2.600
'0:01.373',-2.100
'0:01.374',-2.000
'0:01.375',-2.400
'0:01.376',-3.100
'0:01.377',-3.900
'0:01.378',-4.700
'0:01.379',-5.400
'0:01.380',-5.900
'0:01.381',-6.100
'0:01.382',-6.100
'0:01.383',-5.700
'0:01.384',-5.100
'0:01.385',-4.400
'0:01.386',-4.100
'0:01.387',-4.200
'0:01.388',-4.600
'0:01.389',-5.000
'0:01.390',-5.100
'0:01.391',-4.600
'0:01.392',-3.800
'0:01.393',-3.000
'0:01.394',-2.500
'0:01.395',-2.500
'0:01.396',-3.000
'0:01.397',-3.600
'0:01.398',-3.900
'0:01.399',-3.900
'0:01.400',-3.500
'0:01.401',-2.900
'0:01.402',-2.300
'0:01.403',-1.900
'0:01.404',-1.600
'0:01.405',-1.600
'0:01.406',-1.800
'0:01.407',-2.200
'0:01.408',-2.900
'0:01.409',-3.500
'0:01.410',-4.000
'0:01.411',-4.200
'0:01.412',-4.100
'0:01.413',-3.700
'0:01.414',-3.100
'0:01.415',-2.300
'0:01.416',-1.200
'0:01.417',0.500
'0:01.418',2.700
'0:01.419',5.500
'0:01.420',8.500
'0:01.421',11.300
'0:01.422',13.700
'0:01.423',15.400
'0:01.424',16.800
'0:01.425',17.900
'0:01.426',19.100
'0:01.427',20.500
'0:01.428',22.000
'0:01.429',23.500
'0:01.430',25.200
'0:01.431',27.000
'0:01.432',29.100
'0:01.433',31.500
'0:01.434',33.901
'0:01.435',36.301
'0:01.436',38.301
'0:01.437',39.901
'0:01.438',40.801
'0:01.439',41.001
'0:01.440',40.101
'0:01.441',38.301
'0:01.442',35.601
'0:01.443',32.500
'0:01.444',29.600
'0:01.445',27.600
'0:01.446',26.800
'0:01.447',27.000
'0:01.448',27.600
'0:01.449',27.900
'0:01.450',27.100
'0:01.451',25.000
'0:01.452',21.600
'0:01.453',17.100
'0:01.454',12.000
'0:01.455',6.500
'0:01.456',0.700
'0:01.457',-5.300
'0:01.458',-11.100
'0:01.459',-16.500
'0:01.460',-21.000
'0:01.461',-24.400
'0:01.462',-26.500
'0:01.463',-27.400
'0:01.464',-27.600
'0:01.465',-27.300
'0:01.466',-27.000
'0:01.467',-26.700
'0:01.468',-26.600
'0:01.469',-26.700
'0:01.470',-27.000
'0:01.471',-27.500
'0:01.472',-27.900
'0:01.473',-28.200
'0:01.474',-28.300
'0:01.475',-28.100
'0:01.476',-27.700
'0:01.477',-26.900
'0:01.478',-25.800
'0:01.479',-24.300
'0:01.480',-22.500
'0:01.481',-20.700
'0:01.482',-19.000
'0:01.483',-17.500
'0:01.484',-16.200
'0:01.485',-14.800
'0:01.486',-13.100
'0:01.487',-11.100
'0:01.488',-9.000
'0:01.489',-7.100
'0:01.490',-6.000
'0:01.491',-5.700
'0:01.492',-5.900
'0:01.493',-6.300
'0:01.494',-6.500
'0:01.495',-6.300
'0:01.496',-5.900
'0:01.497',-5.600
'0:01.498',-5.400
'0:01.499',-5.400
'0:01.500',-5.300
'0:01.501',-4.900
'0:01.502',-4.300
'0:01.503',-3.700
'0:01.504',-3.300
'0:01.505',-3.400
'0:01.506',-3.600
'0:01.507',-3.700
'0:01.508',-3.300
'0:01.509',-2.400
'0:01.510',-1.200
'0:01.511',-0.300
'0:01.512',0.000
'0:01.513',-0.200
'0:01.514',-0.800
'0:01.515',-1.400
'0:01.516',-1.600
'0:01.517',-1.400
'0:01.518',-1.100
'0:01.519',-0.900
'0:01.520',-1.100
'0:01.521',-1.400
'0:01.522',-1.800
'0:01.523',-2.000
'0:01.524',-1.900
'0:01.525',-1.500
'0:01.526',-0.900
'0:01.527',-0.200
'0:01.528',0.600
'0:01.529',1.300
'0:01.530',2.100
'0:01.531',2.900
'0:01.532',3.900
'0:01.533',5.100
'0:01.534',6.400
'0:01.535',7.400
'0:01.536',7.800
'0:01.537',7.500
'0:01.538',6.600
'0:01.539',5.500
'0:01.540',4.500
'0:01.541',3.800
'0:01.542',3.400
'0:01.543',2.900
'0:01.544',2.400
'0:01.545',1.900
'0:01.546',1.700
'0:01.547',2.000
'0:01.548',2.800
'0:01.549',3.600
'0:01.550',4.200
'0:01.551',4.300
'0:01.552',4.000
'0:01.553',3.800
'0:01.554',3.700
'0:01.555',3.700
'0:01.556',3.700
'0:01.557',3.500
'0:01.558',3.000
'0:01.559',2.500
'0:01.560',2.000
'0:01.561',1.600
'0:01.562',1.200
'0:01.563',0.800
'0:01.564',0.500
'0:01.565',0.600
'0:01.566',1.500
'0:01.567',3.000
'0:01.568',5.100
'0:01.569',7.300
'0:01.570',9.100
'0:01.571',10.600
'0:01.572',12.400
'0:01.573',15.100
'0:01.574',19.200
'0:01.575',24.700
'0:01.576',30.800
'0:01.577',36.201
'0:01.578',39.801
'0:01.579',41.101
'0:01.580',40.001
'0:01.581',37.401
'0:01.582',34.101
'0:01.583',30.500
'0:01.584',26.600
'0:01.585',22.100
'0:01.586',16.800
'0:01.587',11.000
'0:01.588',5.300
'0:01.589',0.500
'0:01.590',-2.900
'0:01.591',-5.000
'0:01.592',-6.200
'0:01.593',-7.100
'0:01.594',-7.700
'0:01.595',-7.800
'0:01.596',-7.100
'0:01.597',-5.300
'0:01.598',-2.700
'0:01.599',0.100
'0:01.600',2.600
'0:01.601',4.300
'0:01.602',5.600
'0:01.603',6.600
'0:01.604',7.500
'0:01.605',8.400
'0:01.606',8.900
'0:01.607',9.100
'0:01.608',8.800
'0:01.609',8.700
'0:01.610',8.900
'0:01.611',9.500
'0:01.612',10.300
'0:01.613',10.900
'0:01.614',11.200
'0:01.615',11.300
'0:01.616',11.500
'0:01.617',12.200
'0:01.618',13.000
'0:01.619',13.700
'0:01.620',13.800
'0:01.621',13.300
'0:01.622',12.600
'0:01.623',12.100
'0:01.624',12.500
'0:01.625',13.600
'0:01.626',14.900
'0:01.627',15.800
'0:01.628',15.700
'0:01.629',14.700
'0:01.630',13.400
'0:01.631',12.300
'0:01.632',11.900
'0:01.633',12.000
'0:01.634',12.500
'0:01.635',12.900
'0:01.636',13.200
'0:01.637',13.200
'0:01.638',13.100
'0:01.639',13.200
'0:01.640',13.600
'0:01.641',14.300
'0:01.642',15.100
'0:01.643',15.700
'0:01.644',16.000
'0:01.645',15.800
'0:01.646',15.400
'0:01.647',15.000
'0:01.648',14.900
'0:01.649',15.200
'0:01.650',15.600
'0:01.651',15.700
'0:01.652',15.100
'0:01.653',14.000
'0:01.654',12.700
'0:01.655',12.000
'0:01.656',12.300
'0:01.657',13.300
'0:01.658',14.600
'0:01.659',15.400
'0:01.660',15.400
'0:01.661',14.600
'0:01.662',13.600
'0:01.663',13.000
'0:01.664',12.900
'0:01.665',13.200
'0:01.666',13.400
'0:01.667',13.200
'0:01.668',12.700
'0:01.669',12.100
'0:01.670',11.700
'0:01.671',11.700
'0:01.672',11.900
'0:01.673',12.100
'0:01.674',12.400
'0:01.675',12.800
'0:01.676',13.400
'0:01.677',14.500
'0:01.678',16.100
'0:01.679',17.700
'0:01.680',18.800
'0:01.681',19.000
'0:01.682',18.100
'0:01.683',16.800
'0:01.684',15.600
'0:01.685',15.200
'0:01.686',15.800
'0:01.687',16.800
'0:01.688',17.700
'0:01.689',17.700
'0:01.690',16.800
'0:01.691',15.300
'0:01.692',13.900
'0:01.693',13.000
'0:01.694',12.700
'0:01.695',12.600
'0:01.696',12.400
'0:01.697',11.900
'0:01.698',11.200
'0:01.699',10.700
'0:01.700',10.600
'0:01.701',11.000
'0:01.702',11.600
'0:01.703',12.200
'0:01.704',12.900
'0:01.705',13.400
'0:01.706',14.000
'0:01.707',14.300
'0:01.708',14.200
'0:01.709',13.600
'0:01.710',12.700
'0:01.711',11.700
'0:01.712',10.900
'0:01.713',10.400
'0:01.714',10.300
'0:01.715',10.100
'0:01.716',9.700
'0:01.717',9.200
'0:01.718',8.700
'0:01.719',8.600
'0:01.720',8.900
'0:01.721',9.300
'0:01.722',9.500
'0:01.723',9.200
'0:01.724',8.400
'0:01.725',7.300
'0:01.726',6.200
'0:01.727',5.300
'0:01.728',4.700
'0:01.729',4.200
'0:01.730',3.800
'0:01.731',3.400
'0:01.732',3.200
'0:01.733',3.500
'0:01.734',4.300
'0:01.735',5.600
'0:01.736',6.900
'0:01.737',7.900
'0:01.738',8.100
'0:01.739',7.400
'0:01.740',5.900
'0:01.741',4.100
'0:01.742',2.300
'0:01.743',0.900
'0:01.744',0.000
'0:01.745',-0.400
'0:01.746',-0.600
'0:01.747',-0.900
'0:01.748',-1.500
'0:01.749',-2.000
'0:01.750',-2.400
'0:01.751',-2.400
'0:01.752',-1.900
'0:01.753',-1.200
'0:01.754',-0.700
'0:01.755',-0.600
'0:01.756',-1.000
'0:01.757',-1.800
'0:01.758',-2.500
'0:01.759',-2.800
'0:01.760',-2.600
'0:01.761',-2.100
'0:01.762',-1.700
'0:01.763',-1.500
'0:01.764',-1.700
'0:01.765',-2.100
'0:01.766',-2.400
'0:01.767',-2.400
'0:01.768',-2.100
'0:01.769',-1.600
'0:01.770',-1.100
'0:01.771',-0.700
'0:01.772',-0.500
'0:01.773',-0.500
'0:01.774',-0.700
'0:01.775',-1.100
'0:01.776',-1.700
'0:01.777',-2.300
'0:01.778',-2.800
'0:01.779',-3.100
'0:01.780',-3.000
'0:01.781',-2.800
'0:01.782',-2.700
'0:01.783',-2.900
'0:01.784',-3.200
'0:01.785',-3.500
'0:01.786',-3.500
'0:01.787',-3.100
'0:01.788',-2.600
'0:01.789',-2.300
'0:01.790',-2.400
'0:01.791',-2.900
'0:01.792',-3.700
'0:01.793',-4.400
'0:01.794',-4.800
'0:01.795',-4.700
'0:01.796',-4.200
'0:01.797',-3.500
'0:01.798',-2.800
'0:01.799',-2.300
'0:01.800',-2.000
'0:01.801',-2.100
'0:01.802',-2.400
'0:01.803',-2.900
'0:01.804',-3.500
'0:01.805',-4.000
'0:01.806',-4.200
'0:01.807',-4.000
'0:01.808',-3.500
'0:01.809',-2.700
'0:01.810',-1.600
'0:01.811',-0.600
'0:01.812',0.300
'0:01.813',0.900
'0:01.814',1.100
'0:01.815',0.900
'0:01.816',0.500
'0:01.817',0.100
'0:01.818',-0.100
'0:01.819',-0.300
'0:01.820',-0.400
'0:01.821',-0.600
'0:01.822',-1.000
'0:01.823',-1.200
'0:01.824',-1.300
'0:01.825',-1.000
'0:01.826',-0.700
'0:01.827',-0.600
'0:01.828',-0.800
'0:01.829',-1.500
'0:01.830',-2.300
'0:01.831',-2.900
'0:01.832',-3.100
'0:01.833',-2.700
'0:01.834',-1.900
'0:01.835',-1.100
'0:01.836',-0.300
'0:01.837',0.200
'0:01.838',0.400
'0:01.839',0.500
'0:01.840',0.500
'0:01.841',0.600
'0:01.842',0.600
'0:01.843',0.500
'0:01.844',0.200
'0:01.845',-0.400
'0:01.846',-1.400
'0:01.847',-2.600
'0:01.848',-3.800
'0:01.849',-4.500
'0:01.850',-4.800
'0:01.851',-4.600
'0:01.852',-4.300
'0:01.853',-4.200
'0:01.854',-4.300
'0:01.855',-4.700
'0:01.856',-5.000
'0:01.857',-5.000
'0:01.858',-4.600
'0:01.859',-3.800
'0:01.860',-2.900
'0:01.861',-2.400
'0:01.862',-2.500
'0:01.863',-3.100
'0:01.864',-4.200
'0:01.865',-5.200
'0:01.866',-5.900
'0:01.867',-6.300
'0:01.868',-6.600
'0:01.869',-7.100
'0:01.870',-7.800
'0:01.871',-8.400
'0:01.872',-8.800
'0:01.873',-8.600
'0:01.874',-7.900
'0:01.875',-6.800
'0:01.876',-5.800
'0:01.877',-5.000
'0:01.878',-4.400
'0:01.879',-4.000
'0:01.880',-3.600
'0:01.881',-3.100
'0:01.882',-2.700
'0:01.883',-2.300
'0:01.884',-2.200
'0:01.885',-2.300
'0:01.886',-2.200
'0:01.887',-2.000
'0:01.888',-1.600
'0:01.889',-1.000
'0:01.890',-0.500
'0:01.891',0.000
'0:01.892',0.300
'0:01.893',0.300
'0:01.894',0.100
'0:01.895',-0.300
'0:01.896',-1.000
'0:01.897',-1.700
'0:01.898',-2.300
'0:01.899',-2.400
'0:01.900',-2.000
'0:01.901',-1.200
'0:01.902',-0.400
'0:01.903',-0.100
'0:01.904',-0.300
'0:01.905',-1.100
'0:01.906',-2.100
'0:01.907',-2.700
'0:01.908',-2.500
'0:01.909',-1.600
'0:01.910',-0.300
'0:01.911',0.600
'0:01.912',0.600
'0:01.913',-0.400
'0:01.914',-1.900
'0:01.915',-3.500
'0:01.916',-4.600
'0:01.917',-4.900
'0:01.918',-4.800
'0:01.919',-4.600
'0:01.920',-4.500
'0:01.921',-4.800
'0:01.922',-5.100
'0:01.923',-5.300
'0:01.924',-5.300
'0:01.925',-5.400
'0:01.926',-5.600
'0:01.927',-6.200
'0:01.928',-6.900
'0:01.929',-7.500
'0:01.930',-7.500
'0:01.931',-6.800
'0:01.932',-5.600
'0:01.933',-4.100
'0:01.934',-2.600
'0:01.935',-1.400
'0:01.936',-0.600
'0:01.937',-0.200
'0:01.938',-0.200
'0:01.939',-0.500
'0:01.940',-1.100
'0:01.941',-1.900
'0:01.942',-2.800
'0:01.943',-3.600
'0:01.944',-4.300
'0:01.945',-4.800
'0:01.946',-5.100
'0:01.947',-5.400
'0:01.948',-5.800
'0:01.949',-6.300
'0:01.950',-6.900
'0:01.951',-7.200
'0:01.952',-7.000
'0:01.953',-6.500
'0:01.954',-5.900
'0:01.955',-5.400
'0:01.956',-5.300
'0:01.957',-5.500
'0:01.958',-5.800
'0:01.959',-6.000
'0:01.960',-5.900
'0:01.961',-5.600
'0:01.962',-5.200
'0:01.963',-4.900
'0:01.964',-4.800
'0:01.965',-5.100
'0:01.966',-5.600
'0:01.967',-6.400
'0:01.968',-7.300
'0:01.969',-8.200
'0:01.970',-8.700
'0:01.971',-9.000
'0:01.972',-8.900
'0:01.973',-8.700
'0:01.974',-8.500
'0:01.975',-8.400
'0:01.976',-8.300
'0:01.977',-8.200
'0:01.978',-7.800
'0:01.979',-7.200
'0:01.980',-6.500
'0:01.981',-5.900
'0:01.982',-5.400
'0:01.983',-5.200
'0:01.984',-5.100
'0:01.985',-5.100
'0:01.986',-5.200
'0:01.987',-5.300
'0:01.988',-5.500
'0:01.989',-5.900
'0:01.990',-6.400
'0:01.991',-6.700
'0:01.992',-6.700
'0:01.993',-6.100
'0:01.994',-5.100
'0:01.995',-3.900
'0:01.996',-2.800
'0:01.997',-1.900
'0:01.998',-1.300
'0:01.999',-0.900
'0:02.000',-0.700
'0:02.001',-0.500
'0:02.002',-0.300
'0:02.003',-0.300
'0:02.004',-0.400
'0:02.005',-0.500
'0:02.006',-0.500
'0:02.007',-0.500
'0:02.008',-0.400
'0:02.009',-0.500
'0:02.010',-0.700
'0:02.011',-0.900
'0:02.012',-1.000
'0:02.013',-0.700
'0:02.014',0.000
'0:02.015',0.800
'0:02.016',1.600
'0:02.017',1.800
'0:02.018',1.300
'0:02.019',0.500
'0:02.020',-0.300
'0:02.021',-0.800
'0:02.022',-0.700
'0:02.023',-0.300
'0:02.024',0.000
'0:02.025',-0.100
'0:02.026',-0.500
'0:02.027',-0.900
'0:02.028',-1.200
'0:02.029',-1.000
'0:02.030',-0.500
'0:02.031',0.200
'0:02.032',0.900
'0:02.033',1.600
'0:02.034',2.400
'0:02.035',3.300
'0:02.036',4.100
'0:02.037',4.800
'0:02.038',5.800
'0:02.039',7.600
'0:02.040',10.900
'0:02.041',15.700
'0:02.042',21.500
'0:02.043',26.900
'0:02.044',30.700
'0:02.045',32.100
'0:02.046',31.100
'0:02.047',28.800
'0:02.048',26.000
'0:02.049',23.300
'0:02.050',20.400
'0:02.051',16.800
'0:02.052',11.700
'0:02.053',5.100
'0:02.054',-2.300
'0:02.055',-9.400
'0:02.056',-15.100
'0:02.057',-18.800
'0:02.058',-20.400
'0:02.059',-20.200
'0:02.060',-18.900
'0:02.061',-17.200
'0:02.062',-15.500
'0:02.063',-13.900
'0:02.064',-12.500
'0:02.065',-11.000
'0:02.066',-9.500
'0:02.067',-7.800
'0:02.068',-6.300
'0:02.069',-5.000
'0:02.070',-3.900
'0:02.071',-3.000
'0:02.072',-2.200
'0:02.073',-1.400
'0:02.074',-0.600
'0:02.075',-0.200
'0:02.076',-0.100
'0:02.077',-0.600
'0:02.078',-1.400
'0:02.079',-2.500
'0:02.080',-3.400
'0:02.081',-3.800
'0:02.082',-3.500
'0:02.083',-2.600
'0:02.084',-1.300
'0:02.085',-0.300
'0:02.086',0.100
'0:02.087',-0.400
'0:02.088',-1.600
'0:02.089',-3.000
'0:02.090',-4.000
'0:02.091',-4.400
'0:02.092',-4.100
'0:02.093',-3.500
'0:02.094',-3.100
'0:02.095',-3.000
'0:02.096',-3.100
'0:02.097',-3.300
'0:02.098',-3.300
'0:02.099',-3.000
'0:02.100',-2.300
'0:02.101',-1.600
'0:02.102',-1.000
'0:02.103',-0.700
'0:02.104',-0.800
'0:02.105',-1.200
'0:02.106',-1.900
'0:02.107',-2.700
'0:02.108',-3.200
'0:02.109',-3.300
'0:02.110',-2.800
'0:02.111',-1.900
'0:02.112',-0.900
'0:02.113',-0.200
'0:02.114',0.200
'0:02.115',0.100
'0:02.116',-0.200
'0:02.117',-0.700
'0:02.118',-1.200
'0:02.119',-1.700
'0:02.120',-2.200
'0:02.121',-2.600
'0:02.122',-2.600
'0:02.123',-2.300
'0:02.124',-1.800
'0:02.125',-1.400
'0:02.126',-1.100
'0:02.127',-1.200
'0:02.128',-1.400
'0:02.129',-1.400
'0:02.130',-1.000
'0:02.131',0.000
'0:02.132',1.300
'0:02.133',2.600
'0:02.134',3.400
'0:02.135',3.700
'0:02.136',3.500
'0:02.137',3.100
'0:02.138',2.700
'0:02.139',2.500
'0:02.140',2.500
'0:02.141',2.500
'0:02.142',2.600
'0:02.143',2.900
'0:02.144',3.600
'0:02.145',5.000
'0:02.146',7.200
'0:02.147',10.000
'0:02.148',13.000
'0:02.149',15.800
'0:02.150',17.900
'0:02.151',19.500
'0:02.152',20.700
'0:02.153',22.000
'0:02.154',23.700
'0:02.155',26.100
'0:02.156',29.100
'0:02.157',32.200
'0:02.158',35.201
'0:02.159',37.701
'0:02.160',39.501
'0:02.161',40.801
'0:02.162',41.701
'0:02.163',42.601
'0:02.164',43.501
'0:02.165',44.301
'0:02.166',44.801
'0:02.167',44.501
'0:02.168',43.401
'0:02.169',41.501
'0:02.170',39.101
'0:02.171',36.901
'0:02.172',35.001
'0:02.173',33.801
'0:02.174',33.401
'0:02.175',33.601
'0:02.176',34.001
'0:02.177',34.101
'0:02.178',33.301
'0:02.179',31.000
'0:02.180',27.000
'0:02.181',21.700
'0:02.182',15.700
'0:02.183',9.800
'0:02.184',4.500
'0:02.185',0.100
'0:02.186',-3.600
'0:02.187',-6.800
'0:02.188',-9.400
'0:02.189',-11.300
'0:02.190',-12.400
'0:02.191',-12.600
'0:02.192',-12.300
'0:02.193',-12.200
'0:02.194',-12.600
'0:02.195',-13.700
'0:02.196',-15.400
'0:02.197',-17.000
'0:02.198',-18.400
'0:02.199',-19.400
'0:02.200',-20.100
'0:02.201',-20.600
'0:02.202',-21.200
'0:02.203',-21.700
'0:02.204',-22.000
'0:02.205',-21.800
'0:02.206',-20.900
'0:02.207',-19.600
'0:02.208',-18.100
'0:02.209',-16.700
'0:02.210',-15.400
'0:02.211',-14.100
'0:02.212',-12.800
'0:02.213',-11.300
'0:02.214',-9.700
'0:02.215',-8.100
'0:02.216',-6.900
'0:02.217',-5.900
'0:02.218',-5.200
'0:02.219',-4.400
'0:02.220',-3.400
'0:02.221',-2.100
'0:02.222',-0.600
'0:02.223',0.900
'0:02.224',2.000
'0:02.225',2.600
'0:02.226',2.800
'0:02.227',2.500
'0:02.228',2.200
'0:02.229',1.800
'0:02.230',1.800
'0:02.231',1.900
'0:02.232',2.000
'0:02.233',1.900
'0:02.234',1.500
'0:02.235',0.600
'0:02.236',-0.400
'0:02.237',-1.400
'0:02.238',-2.100
'0:02.239',-2.400
'0:02.240',-2.400
'0:02.241',-2.200
'0:02.242',-1.800
'0:02.243',-1.400
'0:02.244',-0.800
'0:02.245',-0.100
'0:02.246',0.600
'0:02.247',1.000
'0:02.248',1.100
'0:02.249',0.700
'0:02.250',0.200
'0:02.251',-0.300
'0:02.252',-0.500
'0:02.253',-0.200
'0:02.254',0.300
'0:02.255',0.800
'0:02.256',1.000
'0:02.257',0.900
'0:02.258',0.700
'0:02.259',0.500
'0:02.260',0.500
'0:02.261',0.600
'0:02.262',0.800
'0:02.263',1.100
'0:02.264',1.200
'0:02.265',1.300
'0:02.266',1.000
'0:02.267',0.400
'0:02.268',-0.400
'0:02.269',-1.300
'0:02.270',-2.200
'0:02.271',-2.900
'0:02.272',-3.200
'0:02.273',-3.200
'0:02.274',-2.900
'0:02.275',-2.600
'0:02.276',-2.200
'0:02.277',-1.800
'0:02.278',-1.400
'0:02.279',-1.100
'0:02.280',-0.900
'0:02.281',-0.600
'0:02.282',-0.300
'0:02.283',0.100
'0:02.284',0.300
'0:02.285',0.300
'0:02.286',0.100
'0:02.287',-0.200
'0:02.288',-0.400
'0:02.289',-0.400
'0:02.290',-0.200
'0:02.291',0.300
'0:02.292',0.800
'0:02.293',1.300
'0:02.294',1.600
'0:02.295',1.700
'0:02.296',1.600
'0:02.297',1.400
'0:02.298',1.200
'0:02.299',1.100
'0:02.300',1.300
'0:02.301',1.600
'0:02.302',1.900
'0:02.303',1.900
'0:02.304',1.500
'0:02.305',0.900
'0:02.306',0.300
'0:02.307',0.200
'0:02.308',0.800
'0:02.309',2.000
'0:02.310',3.300
'0:02.311',4.200
'0:02.312',4.500
'0:02.313',4.200
'0:02.314',3.600
'0:02.315',3.000
'0:02.316',2.700
'0:02.317',2.500
'0:02.318',2.300
'0:02.319',1.800
'0:02.320',1.200
'0:02.321',0.800
'0:02.322',0.900
'0:02.323',1.600
'0:02.324',2.700
'0:02.325',3.900
'0:02.326',4.700
'0:02.327',5.000
'0:02.328',4.900
'0:02.329',4.800
'0:02.330',5.000
'0:02.331',5.700
'0:02.332',7.000
'0:02.333',8.600
'0:02.334',10.200
'0:02.335',11.400
'0:02.336',12.000
'0:02.337',11.700
'0:02.338',10.900
'0:02.339',9.900
'0:02.340',9.300
'0:02.341',9.300
'0:02.342',9.700
'0:02.343',10.100
'0:02.344',10.200
'0:02.345',9.700
'0:02.346',8.700
'0:02.347',7.500
'0:02.348',6.400
'0:02.349',5.700
'0:02.350',5.300
'0:02.351',5.000
'0:02.352',4.800
'0:02.353',4.700
'0:02.354',4.800
'0:02.355',5.200
'0:02.356',5.800
'0:02.357',6.500
'0:02.358',7.200
'0:02.359',8.000
'0:02.360',9.000
'0:02.361',10.200
'0:02.362',11.300
'0:02.363',12.200
'0:02.364',12.400
'0:02.365',12.000
'0:02.366',11.300
'0:02.367',10.700
'0:02.368',10.300
'0:02.369',10.400
'0:02.370',10.600
'0:02.371',10.900
'0:02.372',11.200
'0:02.373',11.500
'0:02.374',11.800
'0:02.375',12.200
'0:02.376',12.300
'0:02.377',12.200
'0:02.378',11.800
'0:02.379',11.500
'0:02.380',11.600
'0:02.381',12.200
'0:02.382',13.000
'0:02.383',13.600
'0:02.384',13.800
'0:02.385',13.400
'0:02.386',13.000
'0:02.387',12.600
'0:02.388',12.600
'0:02.389',12.700
'0:02.390',12.600
'0:02.391',12.400
'0:02.392',12.000
'0:02.393',11.900
'0:02.394',12.100
'0:02.395',12.700
'0:02.396',13.200
'0:02.397',13.300
'0:02.398',12.800
'0:02.399',11.700
'0:02.400',10.500
'0:02.401',9.500
'0:02.402',9.000
'0:02.403',9.100
'0:02.404',9.500
'0:02.405',9.900
'0:02.406',10.200
'0:02.407',10.300
'0:02.408',10.300
'0:02.409',10.100
'0:02.410',9.900
'0:02.411',9.700
'0:02.412',9.400
'0:02.413',9.000
'0:02.414',8.800
'0:02.415',8.800
'0:02.416',9.000
'0:02.417',9.200
'0:02.418',9.300
'0:02.419',9.100
'0:02.420',8.500
'0:02.421',7.700
'0:02.422',7.100
'0:02.423',6.900
'0:02.424',7.000
'0:02.425',7.500
'0:02.426',8.100
'0:02.427',8.700
'0:02.428',9.200
'0:02.429',9.500
'0:02.430',9.500
'0:02.431',9.200
'0:02.432',8.500
'0:02.433',7.700
'0:02.434',7.100
'0:02.435',6.900
'0:02.436',7.400
'0:02.437',8.400
'0:02.438',9.400
'0:02.439',10.100
'0:02.440',10.500
'0:02.441',10.500
'0:02.442',10.300
'0:02.443',10.000
'0:02.444',9.600
'0:02.445',9.000
'0:02.446',8.100
'0:02.447',7.000
'0:02.448',6.100
'0:02.449',5.400
'0:02.450',5.000
'0:02.451',4.800
'0:02.452',4.600
'0:02.453',4.100
'0:02.454',3.500
'0:02.455',3.000
'0:02.456',2.600
'0:02.457',2.300
'0:02.458',2.100
'0:02.459',1.800
'0:02.460',1.400
'0:02.461',0.900
'0:02.462',0.600
'0:02.463',0.400
'0:02.464',0.300
'0:02.465',0.200
'0:02.466',-0.200
'0:02.467',-0.800
'0:02.468',-1.600
'0:02.469',-2.300
'0:02.470',-2.700
'0:02.471',-2.800
'0:02.472',-2.900
'0:02.473',-3.100
'0:02.474',-3.600
'0:02.475',-4.300
'0:02.476',-5.000
'0:02.477',-5.500
'0:02.478',-5.500
'0:02.479',-5.100
'0:02.480',-4.400
'0:02.481',-3.800
'0:02.482',-3.400
'0:02.483',-3.300
'0:02.484',-3.300
'0:02.485',-3.200
'0:02.486',-3.100
'0:02.487',-3.100
'0:02.488',-3.500
'0:02.489',-4.500
'0:02.490',-6.000
'0:02.491',-7.700
'0:02.492',-9.200
'0:02.493',-10.400
'0:02.494',-11.200
'0:02.495',-11.600
'0:02.496',-11.800
'0:02.497',-11.500
'0:02.498',-10.600
'0:02.499',-9.000
'0:02.500',-6.800
'0:02.501',-4.400
'0:02.502',-2.200
'0:02.503',-0.100
'0:02.504',2.100
'0:02.505',5.300
'0:02.506',9.900
'0:02.507',16.100
'0:02.508',22.700
'0:02.509',28.400
'0:02.510',31.500
'0:02.511',31.300
'0:02.512',28.100
'0:02.513',23.100
'0:02.514',17.800
'0:02.515',13.200
'0:02.516',9.400
'0:02.517',5.800
'0:02.518',1.600
'0:02.519',-3.700
'0:02.520',-9.700
'0:02.521',-15.400
'0:02.522',-20.000
'0:02.523',-22.600
'0:02.524',-23.400
'0:02.525',-22.500
'0:02.526',-20.700
'0:02.527',-18.600
'0:02.528',-16.500
'0:02.529',-14.600
'0:02.530',-12.800
'0:02.531',-11.000
'0:02.532',-9.300
'0:02.533',-7.700
'0:02.534',-6.500
'0:02.535',-5.900
'0:02.536',-6.100
'0:02.537',-6.900
'0:02.538',-7.800
'0:02.539',-8.300
'0:02.540',-8.000
'0:02.541',-7.100
'0:02.542',-5.900
'0:02.543',-5.000
'0:02.544',-4.500
'0:02.545',-4.400
'0:02.546',-4.200
'0:02.547',-3.800
'0:02.548',-3.100
'0:02.549',-2.500
'0:02.550',-2.300
'0:02.551',-2.900
'0:02.552',-4.100
'0:02.553',-5.400
'0:02.554',-6.400
'0:02.555',-7.000
'0:02.556',-7.200
'0:02.557',-7.200
'0:02.558',-7.100
'0:02.559',-6.900
'0:02.560',-6.400
'0:02.561',-5.600
'0:02.562',-4.800
'0:02.563',-4.100
'0:02.564',-3.800
'0:02.565',-4.000
'0:02.566',-4.500
'0:02.567',-5.100
'0:02.568',-5.400
'0:02.569',-5.600
'0:02.570',-5.800
'0:02.571',-6.100
'0:02.572',-6.700
'0:02.573',-7.500
'0:02.574',-8.200
'0:02.575',-8.800
'0:02.576',-9.100
'0:02.577',-9.200
'0:02.578',-9.200
'0:02.579',-9.300
'0:02.580',-9.400
'0:02.581',-9.300
'0:02.582',-8.900
'0:02.583',-8.300
'0:02.584',-7.700
'0:02.585',-7.300
'0:02.586',-7.100
'0:02.587',-6.900
'0:02.588',-6.700
'0:02.589',-6.300
'0:02.590',-5.800
'0:02.591',-5.500
'0:02.592',-5.400
'0:02.593',-5.700
'0:02.594',-6.100
'0:02.595',-6.300
'0:02.596',-6.200
'0:02.597',-6.000
'0:02.598',-5.800
'0:02.599',-6.000
'0:02.600',-6.500
'0:02.601',-7.200
'0:02.602',-7.700
'0:02.603',-7.900
'0:02.604',-8.000
'0:02.605',-7.800
'0:02.606',-7.700
'0:02.607',-7.600
'0:02.608',-7.500
'0:02.609',-7.300
'0:02.610',-7.300
'0:02.611',-7.500
'0:02.612',-8.000
'0:02.613',-8.700
'0:02.614',-9.300
'0:02.615',-9.600
'0:02.616',-9.700
'0:02.617',-9.600
'0:02.618',-9.600
'0:02.619',-10.000
'0:02.620',-10.600
'0:02.621',-11.300
'0:02.622',-11.800
'0:02.623',-11.600
'0:02.624',-11.000
'0:02.625',-10.000
'0:02.626',-9.100
'0:02.627',-8.400
'0:02.628',-8.100
'0:02.629',-8.000
'0:02.630',-7.800
'0:02.631',-7.500
'0:02.632',-7.000
'0:02.633',-6.500
'0:02.634',-6.100
'0:02.635',-6.100
'0:02.636',-6.200
'0:02.637',-6.300
'0:02.638',-6.300
'0:02.639',-6.200
'0:02.640',-6.200
'0:02.641',-6.400
'0:02.642',-6.700
'0:02.643',-7.100
'0:02.644',-7.500
'0:02.645',-7.500
'0:02.646',-7.300
'0:02.647',-6.900
'0:02.648',-6.600
'0:02.649',-6.400
'0:02.650',-6.300
'0:02.651',-6.200
'0:02.652',-6.000
'0:02.653',-5.700
'0:02.654',-5.400
'0:02.655',-5.100
'0:02.656',-4.900
'0:02.657',-4.500
'0:02.658',-3.900
'0:02.659',-3.000
'0:02.660',-1.900
'0:02.661',-1.100
'0:02.662',-0.700
'0:02.663',-1.100
'0:02.664',-2.200
'0:02.665',-3.600
'0:02.666',-5.000
'0:02.667',-6.100
'0:02.668',-6.700
'0:02.669',-6.800
'0:02.670',-6.700
'0:02.671',-6.800
'0:02.672',-7.000
'0:02.673',-7.600
'0:02.674',-8.400
'0:02.675',-9.100
'0:02.676',-9.600
'0:02.677',-9.800
'0:02.678',-9.700
'0:02.679',-9.400
'0:02.680',-9.100
'0:02.681',-8.900
'0:02.682',-8.700
'0:02.683',-8.500
'0:02.684',-8.300
'0:02.685',-8.300
'0:02.686',-8.600
'0:02.687',-9.000
'0:02.688',-9.600
'0:02.689',-10.000
'0:02.690',-10.300
'0:02.691',-10.400
'0:02.692',-10.400
'0:02.693',-10.400
'0:02.694',-10.500
'0:02.695',-10.400
'0:02.696',-10.200
'0:02.697',-9.800
'0:02.698',-9.200
'0:02.699',-8.800
'0:02.700',-8.700
'0:02.701',-9.100
'0:02.702',-9.700
'0:02.703',-10.200
'0:02.704',-10.400
'0:02.705',-10.200
'0:02.706',-9.600
'0:02.707',-8.800
'0:02.708',-8.200
'0:02.709',-7.900
'0:02.710',-7.900
'0:02.711',-8.200
'0:02.712',-8.500
'0:02.713',-8.700
'0:02.714',-8.600
'0:02.715',-8.100
'0:02.716',-7.300
'0:02.717',-6.300
'0:02.718',-5.400
'0:02.719',-5.000
'0:02.720',-5.000
'0:02.721',-5.300
'0:02.722',-5.800
'0:02.723',-6.100
'0:02.724',-6.200
'0:02.725',-6.500
'0:02.726',-7.100
'0:02.727',-7.900
'0:02.728',-8.800
'0:02.729',-9.300
'0:02.730',-9.100
'0:02.731',-8.200
'0:02.732',-7.100
'0:02.733',-6.200
'0:02.734',-6.000
'0:02.735',-6.400
'0:02.736',-7.100
'0:02.737',-7.700
'0:02.738',-8.000
'0:02.739',-8.000
'0:02.740',-7.900
'0:02.741',-8.200
'0:02.742',-8.800
'0:02.743',-9.500
'0:02.744',-10.100
'0:02.745',-10.200
'0:02.746',-9.800
'0:02.747',-9.300
'0:02.748',-8.700
'0:02.749',-8.400
'0:02.750',-8.300
'0:02.751',-8.000
'0:02.752',-7.500
'0:02.753',-6.700
'0:02.754',-5.900
'0:02.755',-5.400
'0:02.756',-5.600
'0:02.757',-6.400
'0:02.758',-7.700
'0:02.759',-9.100
'0:02.760',-10.200
'0:02.761',-11.000
'0:02.762',-11.300
'0:02.763',-11.400
'0:02.764',-11.400
'0:02.765',-11.300
'0:02.766',-11.200
'0:02.767',-10.900
'0:02.768',-10.600
'0:02.769',-10.200
'0:02.770',-9.700
'0:02.771',-9.100
'0:02.772',-8.600
'0:02.773',-8.100
'0:02.774',-7.900
'0:02.775',-8.000
'0:02.776',-8.300
'0:02.777',-8.600
'0:02.778',-8.800
'0:02.779',-8.800
'0:02.780',-8.600
'0:02.781',-8.400
'0:02.782',-8.500
'0:02.783',-8.800
'0:02.784',-9.200
'0:02.785',-9.600
'0:02.786',-9.700
'0:02.787',-9.400
'0:02.788',-8.900
'0:02.789',-8.400
'0:02.790',-7.800
'0:02.791',-7.300
'0:02.792',-6.600
'0:02.793',-5.700
'0:02.794',-4.700
'0:02.795',-3.800
'0:02.796',-3.400
'0:02.797',-3.400
'0:02.798',-3.800
'0:02.799',-4.200
'0:02.800',-4.300
'0:02.801',-4.000
'0:02.802',-3.400
'0:02.803',-3.100
'0:02.804',-3.200
'0:02.805',-3.700
'0:02.806',-4.700
'0:02.807',-5.600
'0:02.808',-6.500
'0:02.809',-7.000
'0:02.810',-7.400
'0:02.811',-7.700
'0:02.812',-8.200
'0:02.813',-8.900
'0:02.814',-9.700
'0:02.815',-10.400
'0:02.816',-10.800
'0:02.817',-10.700
'0:02.818',-10.200
'0:02.819',-9.600
'0:02.820',-9.100
'0:02.821',-9.000
'0:02.822',-9.200
'0:02.823',-9.500
'0:02.824',-9.700
'0:02.825',-9.400
'0:02.826',-8.800
'0:02.827',-8.200
'0:02.828',-7.900
'0:02.829',-8.000
'0:02.830',-8.500
'0:02.831',-8.900
'0:02.832',-9.100
'0:02.833',-8.900
'0:02.834',-8.400
'0:02.835',-8.100
'0:02.836',-8.100
'0:02.837',-8.300
'0:02.838',-8.500
'0:02.839',-8.400
'0:02.840',-7.800
'0:02.841',-6.800
'0:02.842',-5.500
'0:02.843',-4.000
'0:02.844',-2.500
'0:02.845',-0.800
'0:02.846',1.100
'0:02.847',3.200
'0:02.848',5.500
'0:02.849',8.000
'0:02.850',10.600
'0:02.851',13.400
'0:02.852',16.200
'0:02.853',18.900
'0:02.854',21.500
'0:02.855',24.000
'0:02.856',26.300
'0:02.857',28.600
'0:02.858',30.800
'0:02.859',33.101
'0:02.860',35.101
'0:02.861',36.901
'0:02.862',38.401
'0:02.863',39.601
'0:02.864',40.501
'0:02.865',41.001
'0:02.866',40.801
'0:02.867',39.901
'0:02.868',38.201
'0:02.869',36.001
'0:02.870',33.601
'0:02.871',31.600
'0:02.872',30.100
'0:02.873',29.400
'0:02.874',29.500
'0:02.875',29.900
'0:02.876',30.000
'0:02.877',29.100
'0:02.878',26.300
'0:02.879',21.600
'0:02.880',15.300
'0:02.881',8.100
'0:02.882',0.800
'0:02.883',-6.000
'0:02.884',-12.200
'0:02.885',-17.700
'0:02.886',-22.700
'0:02.887',-26.600
'0:02.888',-29.200
'0:02.889',-30.000
'0:02.890',-29.500
'0:02.891',-28.300
'0:02.892',-27.400
'0:02.893',-27.600
'0:02.894',-28.900
'0:02.895',-31.000
'0:02.896',-33.101
'0:02.897',-34.501
'0:02.898',-35.001
'0:02.899',-34.701
'0:02.900',-33.901
'0:02.901',-33.001
'0:02.902',-32.300
'0:02.903',-31.800
'0:02.904',-31.200
'0:02.905',-30.200
'0:02.906',-28.700
'0:02.907',-26.600
'0:02.908',-24.300
'0:02.909',-22.200
'0:02.910',-20.700
'0:02.911',-20.100
'0:02.912',-20.000
'0:02.913',-20.000
'0:02.914',-19.600
'0:02.915',-18.300
'0:02.916',-16.200
'0:02.917',-13.600
'0:02.918',-11.400
'0:02.919',-10.000
'0:02.920',-9.800
'0:02.921',-10.700
'0:02.922',-11.900
'0:02.923',-12.700
'0:02.924',-12.500
'0:02.925',-11.400
'0:02.926',-9.800
'0:02.927',-8.500
'0:02.928',-7.900
'0:02.929',-8.200
'0:02.930',-9.000
'0:02.931',-9.600
'0:02.932',-9.500
'0:02.933',-8.900
'0:02.934',-8.100
'0:02.935',-7.600
'0:02.936',-7.900
'0:02.937',-8.800
'0:02.938',-9.900
'0:02.939',-10.900
'0:02.940',-11.300
'0:02.941',-11.200
'0:02.942',-10.600
'0:02.943',-10.000
'0:02.944',-9.300
'0:02.945',-8.600
'0:02.946',-7.900
'0:02.947',-7.400
'0:02.948',-7.000
'0:02.949',-7.000
'0:02.950',-7.200
'0:02.951',-7.200
'0:02.952',-6.800
'0:02.953',-5.900
'0:02.954',-4.800
'0:02.955',-4.000
'0:02.956',-3.900
'0:02.957',-4.400
'0:02.958',-5.500
'0:02.959',-6.600
'0:02.960',-7.500
'0:02.961',-8.100
'0:02.962',-8.600
'0:02.963',-9.100
'0:02.964',-9.700
'0:02.965',-10.000
'0:02.966',-9.600
'0:02.967',-8.400
'0:02.968',-6.300
'0:02.969',-3.900
'0:02.970',-1.600
'0:02.971',0.500
'0:02.972',2.700
'0:02.973',5.800
'0:02.974',10.200
'0:02.975',16.200
'0:02.976',22.900
'0:02.977',29.100
'0:02.978',33.201
'0:02.979',34.501
'0:02.980',32.801
'0:02.981',29.000
'0:02.982',24.300
'0:02.983',19.600
'0:02.984',15.300
'0:02.985',11.000
'0:02.986',6.200
'0:02.987',0.700
'0:02.988',-5.100
'0:02.989',-10.500
'0:02.990',-14.300
'0:02.991',-16.200
'0:02.992',-16.200
'0:02.993',-14.900
'0:02.994',-13.300
'0:02.995',-11.800
'0:02.996',-10.500
'0:02.997',-9.200
'0:02.998',-7.900
'0:02.999',-6.500
'0:03.000',-5.500
'0:03.001',-4.900
'0:03.002',-4.800
'0:03.003',-4.800
'0:03.004',-4.500
'0:03.005',-3.800
'0:03.006',-3.000
'0:03.007',-2.500
'0:03.008',-2.700
'0:03.009',-3.600
'0:03.010',-4.800
'0:03.011',-5.700
'0:03.012',-6.000
'0:03.013',-5.800
'0:03.014',-5.500
'0:03.015',-5.400
'0:03.016',-5.500
'0:03.017',-5.600
'0:03.018',-5.300
'0:03.019',-4.400
'0:03.020',-3.300
'0:03.021',-2.400
'0:03.022',-1.900
'0:03.023',-2.000
'0:03.024',-2.500
'0:03.025',-2.900
'0:03.026',-3.000
'0:03.027',-2.600
'0:03.028',-1.900
'0:03.029',-1.000
'0:03.030',-0.200
'0:03.031',0.400
'0:03.032',0.700
'0:03.033',0.700
'0:03.034',0.300
'0:03.035',-0.400
'0:03.036',-1.100
'0:03.037',-1.400
'0:03.038',-1.000
'0:03.039',0.000
'0:03.040',1.300
'0:03.041',2.200
'0:03.042',2.500
'0:03.043',2.200
'0:03.044',1.700
'0:03.045',1.600
'0:03.046',2.100
'0:03.047',3.200
'0:03.048',4.300
'0:03.049',4.900
'0:03.050',4.900
'0:03.051',4.700
'0:03.052',4.700
'0:03.053',5.100
'0:03.054',5.900
'0:03.055',6.800
'0:03.056',7.300
'0:03.057',7.100
'0:03.058',6.400
'0:03.059',5.700
'0:03.060',5.300
'0:03.061',5.600
'0:03.062',6.300
'0:03.063',7.300
'0:03.064',8.000
'0:03.065',8.400
'0:03.066',8.300
'0:03.067',8.100
'0:03.068',7.900
'0:03.069',8.000
'0:03.070',8.500
'0:03.071',9.300
'0:03.072',10.000
'0:03.073',10.600
'0:03.074',10.900
'0:03.075',11.000
'0:03.076',11.100
'0:03.077',11.400
'0:03.078',11.800
'0:03.079',12.300
'0:03.080',12.500
'0:03.081',12.500
'0:03.082',12.000
'0:03.083',11.400
'0:03.084',10.700
'0:03.085',10.200
'0:03.086',10.100
'0:03.087',10.400
'0:03.088',10.800
'0:03.089',11.400
'0:03.090',11.900
'0:03.091',12.200
'0:03.092',12.200
'0:03.093',12.000
'0:03.094',11.700
'0:03.095',11.300
'0:03.096',10.800
'0:03.097',10.400
'0:03.098',10.100
'0:03.099',10.000
'0:03.100',10.300
'0:03.101',11.000
'0:03.102',12.100
'0:03.103',13.300
'0:03.104',14.500
'0:03.105',15.500
'0:03.106',16.000
'0:03.107',16.000
'0:03.108',15.700
'0:03.109',15.100
'0:03.110',14.400
'0:03.111',13.700
'0:03.112',13.000
'0:03.113',12.200
'0:03.114',11.300
'0:03.115',10.500
'0:03.116',9.600
'0:03.117',8.900
'0:03.118',8.400
'0:03.119',8.100
'0:03.120',8.000
'0:03.121',7.900
'0:03.122',7.600
'0:03.123',7.200
'0:03.124',6.700
'0:03.125',6.100
'0:03.126',5.400
'0:03.127',4.600
'0:03.128',3.700
'0:03.129',2.900
'0:03.130',2.400
'0:03.131',2.300
'0:03.132',2.700
'0:03.133',3.100
'0:03.134',3.200
'0:03.135',2.600
'0:03.136',1.500
'0:03.137',0.300
'0:03.138',-0.500
'0:03.139',-0.600
'0:03.140',-0.100
'0:03.141',0.600
'0:03.142',1.000
'0:03.143',0.900
'0:03.144',0.400
'0:03.145',-0.200
'0:03.146',-0.600
'0:03.147',-0.600
'0:03.148',-0.600
'0:03.149',-0.600
'0:03.150',-1.000
'0:03.151',-1.500
'0:03.152',-2.200
'0:03.153',-2.700
'0:03.154',-2.900
'0:03.155',-3.000
'0:03.156',-2.900
'0:03.157',-2.700
'0:03.158',-2.400
'0:03.159',-2.000
'0:03.160',-1.400
'0:03.161',-0.700
'0:03.162',-0.100
'0:03.163',0.300
'0:03.164',0.300
'0:03.165',-0.100
'0:03.166',-0.800
'0:03.167',-1.400
'0:03.168',-1.800
'0:03.169',-1.700
'0:03.170',-1.300
'0:03.171',-0.900
'0:03.172',-0.700
'0:03.173',-0.800
'0:03.174',-1.300
'0:03.175',-1.800
'0:03.176',-2.200
'0:03.177',-2.400
'0:03.178',-2.700
'0:03.179',-3.100
'0:03.180',-3.800
'0:03.181',-5.000
'0:03.182',-6.200
'0:03.183',-7.200
'0:03.184',-7.700
'0:03.185',-7.600
'0:03.186',-7.200
'0:03.187',-6.800
'0:03.188',-6.800
'0:03.189',-7.200
'0:03.190',-7.900
'0:03.191',-8.400
'0:03.192',-8.600
'0:03.193',-8.200
'0:03.194',-7.400
'0:03.195',-6.500
'0:03.196',-5.800
'0:03.197',-5.300
'0:03.198',-5.100
'0:03.199',-4.900
'0:03.200',-4.900
'0:03.201',-4.900
'0:03.202',-5.000
'0:03.203',-5.400
'0:03.204',-5.900
'0:03.205',-6.200
'0:03.206',-6.400
'0:03.207',-6.300
'0:03.208',-6.200
'0:03.209',-6.000
'0:03.210',-5.900
'0:03.211',-5.800
'0:03.212',-5.400
'0:03.213',-4.900
'0:03.214',-4.500
'0:03.215',-4.500
'0:03.216',-5.000
'0:03.217',-6.100
'0:03.218',-7.200
'0:03.219',-7.900
'0:03.220',-7.700
'0:03.221',-6.600
'0:03.222',-4.700
'0:03.223',-2.600
'0:03.224',-0.900
'0:03.225',0.200
'0:03.226',0.500
'0:03.227',0.200
'0:03.228',-0.400
'0:03.229',-0.900
'0:03.230',-1.300
'0:03.231',-1.700
'0:03.232',-2.200
'0:03.233',-3.200
'0:03.234',-4.500
'0:03.235',-5.900
'0:03.236',-7.100
'0:03.237',-7.600
'0:03.238',-7.400
'0:03.239',-6.800
'0:03.240',-6.300
'0:03.241',-6.000
'0:03.242',-6.100
'0:03.243',-6.600
'0:03.244',-7.200
'0:03.245',-7.900
'0:03.246',-8.500
'0:03.247',-8.900
'0:03.248',-9.100
'0:03.249',-9.100
'0:03.250',-9.000
'0:03.251',-8.800
'0:03.252',-8.700
'0:03.253',-8.600
'0:03.254',-8.300
'0:03.255',-7.700
'0:03.256',-6.800
'0:03.257',-5.700
'0:03.258',-4.800
'0:03.259',-4.500
'0:03.260',-4.700
'0:03.261',-5.200
'0:03.262',-5.700
'0:03.263',-5.800
'0:03.264',-5.700
'0:03.265',-5.400
'0:03.266',-5.300
'0:03.267',-5.500
'0:03.268',-5.800
'0:03.269',-6.100
'0:03.270',-6.200
'0:03.271',-6.400
'0:03.272',-6.500
'0:03.273',-6.700
'0:03.274',-6.900
'0:03.275',-6.800
'0:03.276',-6.400
'0:03.277',-5.600
'0:03.278',-4.800
'0:03.279',-4.300
'0:03.280',-4.100
'0:03.281',-4.100
'0:03.282',-4.100
'0:03.283',-3.800
'0:03.284',-3.200
'0:03.285',-2.400
'0:03.286',-1.600
'0:03.287',-1.200
'0:03.288',-1.300
'0:03.289',-1.700
'0:03.290',-2.300
'0:03.291',-2.800
'0:03.292',-3.300
'0:03.293',-3.700
'0:03.294',-4.200
'0:03.295',-4.700
'0:03.296',-5.200
'0:03.297',-5.500
'0:03.298',-5.400
'0:03.299',-4.800
'0:03.300',-3.900
'0:03.301',-2.900
'0:03.302',-2.100
'0:03.303',-1.500
'0:03.304',-1.300
'0:03.305',-1.500
'0:03.306',-2.000
'0:03.307',-2.600
'0:03.308',-3.100
'0:03.309',-3.400
'0:03.310',-3.500
'0:03.311',-3.600
'0:03.312',-3.800
'0:03.313',-4.200
'0:03.314',-4.700
'0:03.315',-5.000
'0:03.316',-4.900
'0:03.317',-4.500
'0:03.318',-3.900
'0:03.319',-3.500
'0:03.320',-3.700
'0:03.321',-4.500
'0:03.322',-5.700
'0:03.323',-6.700
'0:03.324',-7.300
'0:03.325',-7.300
'0:03.326',-7.200
'0:03.327',-7.000
'0:03.328',-6.900
'0:03.329',-6.900
'0:03.330',-6.700
'0:03.331',-6.300
'0:03.332',-5.600
'0:03.333',-4.900
'0:03.334',-4.200
'0:03.335',-3.700
'0:03.336',-3.400
'0:03.337',-3.100
'0:03.338',-2.800
'0:03.339',-2.700
'0:03.340',-3.000
'0:03.341',-3.900
'0:03.342',-5.200
'0:03.343',-6.700
'0:03.344',-7.900
'0:03.345',-8.400
'0:03.346',-8.400
'0:03.347',-8.100
'0:03.348',-8.100
'0:03.349',-8.600
'0:03.350',-9.600
'0:03.351',-10.700
'0:03.352',-11.300
'0:03.353',-11.300
'0:03.354',-10.700
'0:03.355',-9.700
'0:03.356',-8.700
'0:03.357',-8.100
'0:03.358',-7.800
'0:03.359',-7.800
'0:03.360',-7.900
'0:03.361',-7.900
'0:03.362',-7.700
'0:03.363',-7.500
'0:03.364',-7.200
'0:03.365',-6.900
'0:03.366',-6.700
'0:03.367',-6.900
'0:03.368',-7.500
'0:03.369',-8.500
'0:03.370',-9.500
'0:03.371',-10.100
'0:03.372',-10.000
'0:03.373',-9.200
'0:03.374',-8.000
'0:03.375',-6.700
'0:03.376',-5.900
'0:03.377',-5.800
'0:03.378',-6.400
'0:03.379',-7.500
'0:03.380',-8.700
'0:03.381',-9.800
'0:03.382',-10.600
'0:03.383',-11.000
'0:03.384',-10.900
'0:03.385',-10.300
'0:03.386',-9.500
'0:03.387',-8.700
'0:03.388',-8.100
'0:03.389',-7.900
'0:03.390',-8.100
'0:03.391',-8.400
'0:03.392',-8.700
'0:03.393',-9.000
'0:03.394',-9.200
'0:03.395',-9.600
'0:03.396',-10.200
'0:03.397',-10.700
'0:03.398',-11.000
'0:03.399',-10.800
'0:03.400',-10.000
'0:03.401',-8.900
'0:03.402',-7.900
'0:03.403',-7.200
'0:03.404',-7.000
'0:03.405',-7.000
'0:03.406',-7.000
'0:03.407',-6.900
'0:03.408',-6.400
'0:03.409',-5.800
'0:03.410',-5.400
'0:03.411',-5.400
'0:03.412',-5.800
'0:03.413',-6.500
'0:03.414',-7.100
'0:03.415',-7.600
'0:03.416',-7.700
'0:03.417',-7.500
'0:03.418',-7.300
'0:03.419',-7.200
'0:03.420',-7.100
'0:03.421',-7.100
'0:03.422',-7.000
'0:03.423',-6.800
'0:03.424',-6.600
'0:03.425',-6.600
'0:03.426',-6.900
'0:03.427',-7.400
'0:03.428',-8.100
'0:03.429',-8.600
'0:03.430',-8.800
'0:03.431',-8.700
'0:03.432',-8.300
'0:03.433',-7.700
'0:03.434',-6.900
'0:03.435',-5.800
'0:03.436',-4.500
'0:03.437',-2.900
'0:03.438',-1.600
'0:03.439',-0.500
'0:03.440',0.200
'0:03.441',1.200
'0:03.442',3.200
'0:03.443',6.900
'0:03.444',12.300
'0:03.445',18.500
'0:03.446',24.100
'0:03.447',27.700
'0:03.448',28.500
'0:03.449',26.900
'0:03.450',23.600
'0:03.451',19.700
'0:03.452',15.500
'0:03.453',10.900
'0:03.454',5.500
'0:03.455',-0.800
'0:03.456',-7.400
'0:03.457',-13.200
'0:03.458',-17.400
'0:03.459',-19.600
'0:03.460',-20.000
'0:03.461',-19.500
'0:03.462',-18.700
'0:03.463',-18.000
'0:03.464',-17.000
'0:03.465',-15.700
'0:03.466',-13.800
'0:03.467',-11.600
'0:03.468',-9.600
'0:03.469',-8.100
'0:03.470',-7.300
'0:03.471',-7.000
'0:03.472',-7.400
'0:03.473',-8.200
'0:03.474',-9.200
'0:03.475',-10.300
'0:03.476',-10.900
'0:03.477',-10.700
'0:03.478',-9.600
'0:03.479',-7.700
'0:03.480',-5.600
'0:03.481',-4.100
'0:03.482',-3.500
'0:03.483',-3.700
'0:03.484',-4.500
'0:03.485',-5.400
'0:03.486',-6.000
'0:03.487',-6.400
'0:03.488',-6.700
'0:03.489',-7.000
'0:03.490',-7.400
'0:03.491',-7.500
'0:03.492',-7.300
'0:03.493',-6.700
'0:03.494',-5.800
'0:03.495',-5.100
'0:03.496',-4.700
'0:03.497',-4.700
'0:03.498',-4.800
'0:03.499',-4.800
'0:03.500',-4.600
'0:03.501',-4.300
'0:03.502',-4.300
'0:03.503',-4.700
'0:03.504',-5.600
'0:03.505',-6.700
'0:03.506',-7.600
'0:03.507',-8.000
'0:03.508',-7.900
'0:03.509',-7.700
'0:03.510',-7.600
'0:03.511',-7.900
'0:03.512',-8.500
'0:03.513',-8.900
'0:03.514',-9.000
'0:03.515',-8.500
'0:03.516',-7.600
'0:03.517',-6.700
'0:03.518',-6.200
'0:03.519',-6.500
'0:03.520',-7.200
'0:03.521',-8.100
'0:03.522',-8.700
'0:03.523',-8.800
'0:03.524',-8.300
'0:03.525',-7.500
'0:03.526',-6.800
'0:03.527',-6.400
'0:03.528',-6.300
'0:03.529',-6.400
'0:03.530',-6.500
'0:03.531',-6.500
'0:03.532',-6.400
'0:03.533',-6.500
'0:03.534',-6.700
'0:03.535',-6.900
'0:03.536',-6.900
'0:03.537',-6.500
'0:03.538',-5.800
'0:03.539',-4.800
'0:03.540',-3.900
'0:03.541',-3.500
'0:03.542',-3.500
'0:03.543',-4.000
'0:03.544',-4.500
'0:03.545',-4.600
'0:03.546',-4.100
'0:03.547',-2.900
'0:03.548',-1.100
'0:03.549',1.000
'0:03.550',2.900
'0:03.551',4.200
'0:03.552',4.800
'0:03.553',5.000
'0:03.554',5.200
'0:03.555',6.100
'0:03.556',7.900
'0:03.557',10.500
'0:03.558',13.400
'0:03.559',16.200
'0:03.560',18.500
'0:03.561',20.300
'0:03.562',21.900
'0:03.563',23.700
'0:03.564',25.900
'0:03.565',28.600
'0:03.566',31.300
'0:03.567',33.701
'0:03.568',35.801
'0:03.569',37.301
'0:03.570',38.401
'0:03.571',39.101
'0:03.572',39.401
'0:03.573',39.101
'0:03.574',38.201
'0:03.575',36.801
'0:03.576',34.801
'0:03.577',32.700
'0:03.578',30.600
'0:03.579',28.600
'0:03.580',27.000
'0:03.581',25.500
'0:03.582',23.800
'0:03.583',21.600
'0:03.584',18.500
'0:03.585',14.500
'0:03.586',9.600
'0:03.587',4.300
'0:03.588',-1.300
'0:03.589',-6.900
'0:03.590',-12.300
'0:03.591',-17.600
'0:03.592',-22.600
'0:03.593',-26.900
'0:03.594',-30.200
'0:03.595',-32.400
'0:03.596',-33.401
'0:03.597',-33.401
'0:03.598',-32.600
'0:03.599',-31.300
'0:03.600',-29.900
'0:03.601',-28.800
'0:03.602',-28.200
'0:03.603',-27.900
'0:03.604',-27.800
'0:03.605',-27.500
'0:03.606',-26.900
'0:03.607',-26.000
'0:03.608',-24.800
'0:03.609',-23.600
'0:03.610',-22.500
'0:03.611',-21.400
'0:03.612',-20.100
'0:03.613',-18.700
'0:03.614',-17.200
'0:03.615',-15.600
'0:03.616',-14.100
'0:03.617',-12.700
'0:03.618',-11.100
'0:03.619',-9.200
'0:03.620',-7.200
'0:03.621',-5.300
'0:03.622',-3.700
'0:03.623',-2.700
'0:03.624',-2.100
'0:03.625',-1.700
'0:03.626',-1.200
'0:03.627',-0.500
'0:03.628',0.400
'0:03.629',1.000
'0:03.630',1.300
'0:03.631',1.000
'0:03.632',0.400
'0:03.633',-0.300
'0:03.634',-0.800
'0:03.635',-1.000
'0:03.636',-0.900
'0:03.637',-0.700
'0:03.638',-0.400
'0:03.639',-0.100
'0:03.640',0.200
'0:03.641',0.500
'0:03.642',0.900
'0:03.643',1.200
'0:03.644',1.500
'0:03.645',1.800
'0:03.646',2.100
'0:03.647',2.400
'0:03.648',2.400
'0:03.649',2.100
'0:03.650',1.500
'0:03.651',0.900
'0:03.652',0.800
'0:03.653',1.300
'0:03.654',2.100
'0:03.655',2.800
'0:03.656',3.000
'0:03.657',2.500
'0:03.658',1.900
'0:03.659',1.400
'0:03.660',1.400
'0:03.661',1.600
'0:03.662',1.700
'0:03.663',1.400
'0:03.664',0.700
'0:03.665',0.000
'0:03.666',-0.200
'0:03.667',0.200
'0:03.668',1.000
'0:03.669',1.900
'0:03.670',2.600
'0:03.671',2.900
'0:03.672',3.100
'0:03.673',3.400
'0:03.674',3.600
'0:03.675',3.600
'0:03.676',3.200
'0:03.677',2.500
'0:03.678',2.000
'0:03.679',2.000
'0:03.680',2.800
'0:03.681',4.100
'0:03.682',5.400
'0:03.683',6.100
'0:03.684',6.000
'0:03.685',5.300
'0:03.686',4.600
'0:03.687',4.300
'0:03.688',4.600
'0:03.689',5.300
'0:03.690',6.000
'0:03.691',6.700
'0:03.692',7.200
'0:03.693',7.800
'0:03.694',8.600
'0:03.695',9.600
'0:03.696',10.600
'0:03.697',11.300
'0:03.698',11.500
'0:03.699',11.100
'0:03.700',10.100
'0:03.701',8.700
'0:03.702',7.300
'0:03.703',6.200
'0:03.704',5.500
'0:03.705',5.200
'0:03.706',5.000
'0:03.707',4.800
'0:03.708',4.300
'0:03.709',3.600
'0:03.710',3.000
'0:03.711',2.700
'0:03.712',3.000
'0:03.713',3.800
'0:03.714',4.700
'0:03.715',5.500
'0:03.716',5.800
'0:03.717',5.700
'0:03.718',5.300
'0:03.719',5.100
'0:03.720',5.100
'0:03.721',5.500
'0:03.722',6.000
'0:03.723',6.500
'0:03.724',7.000
'0:03.725',7.400
'0:03.726',7.800
'0:03.727',8.200
'0:03.728',8.600
'0:03.729',8.800
'0:03.730',8.900
'0:03.731',8.900
'0:03.732',8.900
'0:03.733',9.000
'0:03.734',9.000
'0:03.735',8.700
'0:03.736',8.100
'0:03.737',7.200
'0:03.738',6.400
'0:03.739',6.300
'0:03.740',7.200
'0:03.741',9.000
'0:03.742',11.200
'0:03.743',13.200
'0:03.744',14.300
'0:03.745',14.200
'0:03.746',13.200
'0:03.747',11.800
'0:03.748',10.400
'0:03.749',9.500
'0:03.750',8.900
'0:03.751',8.700
'0:03.752',8.500
'0:03.753',8.500
'0:03.754',8.500
'0:03.755',9.000
'0:03.756',9.700
'0:03.757',10.700
'0:03.758',11.700
'0:03.759',12.300
'0:03.760',12.500
'0:03.761',12.400
'0:03.762',12.400
'0:03.763',12.700
'0:03.764',13.100
'0:03.765',13.400
'0:03.766',13.400
'0:03.767',12.900
'0:03.768',12.300
'0:03.769',12.000
'0:03.770',12.300
'0:03.771',13.200
'0:03.772',14.100
'0:03.773',14.200
'0:03.774',13.300
'0:03.775',11.600
'0:03.776',9.700
'0:03.777',8.600
'0:03.778',8.600
'0:03.779',9.500
'0:03.780',10.800
'0:03.781',12.000
'0:03.782',12.600
'0:03.783',12.800
'0:03.784',13.000
'0:03.785',13.300
'0:03.786',13.900
'0:03.787',14.600
'0:03.788',15.300
'0:03.789',15.800
'0:03.790',16.200
'0:03.791',16.300
'0:03.792',16.300
'0:03.793',16.100
'0:03.794',15.900
'0:03.795',15.800
'0:03.796',15.900
'0:03.797',16.200
'0:03.798',16.500
'0:03.799',16.600
'0:03.800',16.200
'0:03.801',15.600
'0:03.802',15.000
'0:03.803',14.600
'0:03.804',14.600
'0:03.805',14.700
'0:03.806',14.800
'0:03.807',14.700
'0:03.808',14.500
'0:03.809',14.500
'0:03.810',15.100
'0:03.811',16.300
'0:03.812',17.600
'0:03.813',18.700
'0:03.814',18.900
'0:03.815',18.200
'0:03.816',16.600
'0:03.817',14.700
'0:03.818',13.100
'0:03.819',12.200
'0:03.820',12.000
'0:03.821',12.300
'0:03.822',12.600
'0:03.823',12.400
'0:03.824',11.700
'0:03.825',10.600
'0:03.826',9.500
'0:03.827',8.900
'0:03.828',9.000
'0:03.829',9.700
'0:03.830',10.500
'0:03.831',11.100
'0:03.832',11.400
'0:03.833',11.300
'0:03.834',11.100
'0:03.835',10.800
'0:03.836',10.400
'0:03.837',9.700
'0:03.838',8.800
'0:03.839',7.700
'0:03.840',6.600
'0:03.841',5.700
'0:03.842',5.200
'0:03.843',5.100
'0:03.844',5.400
'0:03.845',5.900
'0:03.846',6.500
'0:03.847',7.100
'0:03.848',7.400
'0:03.849',7.400
'0:03.850',6.900
'0:03.851',6.000
'0:03.852',5.100
'0:03.853',4.400
'0:03.854',4.100
'0:03.855',4.000
'0:03.856',3.900
'0:03.857',3.600
'0:03.858',3.100
'0:03.859',2.500
'0:03.860',2.100
'0:03.861',2.100
'0:03.862',2.400
'0:03.863',2.900
'0:03.864',3.100
'0:03.865',3.000
'0:03.866',2.600
'0:03.867',2.100
'0:03.868',1.800
'0:03.869',1.700
'0:03.870',1.800
'0:03.871',1.800
'0:03.872',1.500
'0:03.873',1.200
'0:03.874',0.800
'0:03.875',0.600
'0:03.876',0.600
'0:03.877',0.600
'0:03.878',0.400
'0:03.879',0.000
'0:03.880',-0.600
'0:03.881',-1.100
'0:03.882',-1.600
'0:03.883',-1.900
'0:03.884',-2.300
'0:03.885',-2.600
'0:03.886',-2.700
'0:03.887',-2.400
'0:03.888',-1.500
'0:03.889',-0.400
'0:03.890',0.600
'0:03.891',0.900
'0:03.892',0.300
'0:03.893',-1.000
'0:03.894',-2.600
'0:03.895',-3.900
'0:03.896',-4.700
'0:03.897',-5.200
'0:03.898',-5.600
'0:03.899',-6.100
'0:03.900',-6.500
'0:03.901',-6.600
'0:03.902',-6.200
'0:03.903',-5.200
'0:03.904',-3.800
'0:03.905',-2.400
'0:03.906',-1.200
'0:03.907',0.000
'0:03.908',1.300
'0:03.909',3.200
'0:03.910',5.800
'0:03.911',9.400
'0:03.912',13.900
'0:03.913',19.200
'0:03.914',24.700
'0:03.915',29.700
'0:03.916',33.201
'0:03.917',34.501
'0:03.918',33.301
'0:03.919',29.800
'0:03.920',25.000
'0:03.921',19.800
'0:03.922',15.000
'0:03.923',10.500
'0:03.924',6.100
'0:03.925',1.400
'0:03.926',-3.500
'0:03.927',-8.200
'0:03.928',-12.100
'0:03.929',-14.400
'0:03.930',-15.000
'0:03.931',-14.200
'0:03.932',-12.800
'0:03.933',-11.200
'0:03.934',-10.000
'0:03.935',-9.000
'0:03.936',-8.000
'0:03.937',-6.600
'0:03.938',-5.000
'0:03.939',-3.400
'0:03.940',-2.200
'0:03.941',-1.700
'0:03.942',-1.900
'0:03.943',-2.600
'0:03.944',-3.200
'0:03.945',-3.600
'0:03.946',-3.800
'0:03.947',-3.900
'0:03.948',-4.000
'0:03.949',-4.100
'0:03.950',-4.300
'0:03.951',-4.300
'0:03.952',-4.000
'0:03.953',-3.600
'0:03.954',-3.200
'0:03.955',-2.800
'0:03.956',-2.700
'0:03.957',-2.700
'0:03.958',-2.800
'0:03.959',-2.800
'0:03.960',-2.600
'0:03.961',-2.100
'0:03.962',-1.500
'0:03.963',-0.800
'0:03.964',-0.300
'0:03.965',0.100
'0:03.966',0.400
'0:03.967',0.600
'0:03.968',0.800
'0:03.969',1.300
'0:03.970',2.000
'0:03.971',2.900
'0:03.972',3.600
'0:03.973',4.100
'0:03.974',3.900
'0:03.975',3.200
'0:03.976',2.100
'0:03.977',0.900
'0:03.978',0.100
'0:03.979',-0.100
'0:03.980',0.200
'0:03.981',0.900
'0:03.982',1.500
'0:03.983',1.900
'0:03.984',2.100
'0:03.985',2.100
'0:03.986',2.200
'0:03.987',2.600
'0:03.988',3.200
'0:03.989',3.700
'0:03.990',3.900
'0:03.991',3.600
'0:03.992',3.100
'0:03.993',2.400
'0:03.994',2.000
'0:03.995',1.700
'0:03.996',1.500
'0:03.997',1.200
'0:03.998',0.700
'0:03.999',0.200
'0:04.000',-0.100
'0:04.001',-0.100
'0:04.002',0.400
'0:04.003',1.100
'0:04.004',1.700
'0:04.005',1.900
'0:04.006',1.600
'0:04.007',0.700
'0:04.008',-0.300
'0:04.009',-1.200
'0:04.010',-1.800
'0:04.011',-2.100
'0:04.012',-2.100
'0:04.013',-1.900
'0:04.014',-1.600
'0:04.015',-1.400
'0:04.016',-1.400
'0:04.017',-1.600
'0:04.018',-2.000
'0:04.019',-2.300
'0:04.020',-2.500
'0:04.021',-2.300
'0:04.022',-2.000
'0:04.023',-1.800
'0:04.024',-2.100
'0:04.025',-2.900
'0:04.026',-4.000
'0:04.027',-4.900
'0:04.028',-5.300
'0:04.029',-5.000
'0:04.030',-4.200
'0:04.031',-3.400
'0:04.032',-3.000
'0:04.033',-2.900
'0:04.034',-3.000
'0:04.035',-2.800
'0:04.036',-2.300
'0:04.037',-1.600
'0:04.038',-0.900
'0:04.039',-0.500
'0:04.040',-0.600
'0:04.041',-0.900
'0:04.042',-1.300
'0:04.043',-1.800
'0:04.044',-2.100
'0:04.045',-2.300
'0:04.046',-2.300
'0:04.047',-2.000
'0:04.048',-1.700
'0:04.049',-1.400
'0:04.050',-1.300
'0:04.051',-1.200
'0:04.052',-1.200
'0:04.053',-0.900
'0:04.054',-0.500
'0:04.055',-0.100
'0:04.056',0.100
'0:04.057',0.100
'0:04.058',0.100
'0:04.059',0.300
'0:04.060',1.100
'0:04.061',2.300
'0:04.062',3.600
'0:04.063',4.400
'0:04.064',4.500
'0:04.065',4.200
'0:04.066',4.000
'0:04.067',4.300
'0:04.068',5.000
'0:04.069',5.700
'0:04.070',5.700
'0:04.071',4.700
'0:04.072',2.900
'0:04.073',1.100
'0:04.074',-0.100
'0:04.075',-0.300
'0:04.076',0.200
'0:04.077',0.800
'0:04.078',0.800
'0:04.079',0.100
'0:04.080',-0.900
'0:04.081',-1.700
'0:04.082',-1.900
'0:04.083',-1.400
'0:04.084',-0.700
'0:04.085',-0.200
'0:04.086',-0.300
'0:04.087',-0.800
'0:04.088',-1.300
'0:04.089',-1.400
'0:04.090',-0.900
'0:04.091',-0.200
'0:04.092',0.500
'0:04.093',0.700
'0:04.094',0.300
'0:04.095',-0.500
'0:04.096',-1.200
'0:04.097',-1.600
'0:04.098',-1.500
'0:04.099',-1.200
'0:04.100',-0.900
'0:04.101',-0.900
'0:04.102',-1.300
'0:04.103',-1.700
'0:04.104',-2.000
'0:04.105',-1.800
'0:04.106',-1.100
'0:04.107',-0.100
'0:04.108',0.700
'0:04.109',1.000
'0:04.110',0.800
'0:04.111',0.300
'0:04.112',-0.100
'0:04.113',-0.300
'0:04.114',-0.300
'0:04.115',-0.500
'0:04.116',-0.900
'0:04.117',-1.500
'0:04.118',-2.100
'0:04.119',-2.400
'0:04.120',-2.400
'0:04.121',-2.000
'0:04.122',-1.700
'0:04.123',-1.500
'0:04.124',-1.300
'0:04.125',-1.100
'0:04.126',-0.800
'0:04.127',-0.600
'0:04.128',-0.600
'0:04.129',-0.800
'0:04.130',-1.300
'0:04.131',-1.800
'0:04.132',-2.000
'0:04.133',-1.900
'0:04.134',-1.800
'0:04.135',-1.700
'0:04.136',-1.900
'0:04.137',-2.200
'0:04.138',-2.400
'0:04.139',-2.500
'0:04.140',-2.500
'0:04.141',-2.600
'0:04.142',-2.700
'0:04.143',-3.000
'0:04.144',-3.200
'0:04.145',-3.400
'0:04.146',-3.600
'0:04.147',-3.900
'0:04.148',-4.300
'0:04.149',-4.700
'0:04.150',-4.800
'0:04.151',-4.800
'0:04.152',-4.400
'0:04.153',-4.100
'0:04.154',-3.800
'0:04.155',-3.700
'0:04.156',-3.600
'0:04.157',-3.400
'0:04.158',-2.900
'0:04.159',-2.300
'0:04.160',-1.800
'0:04.161',-1.500
'0:04.162',-1.700
'0:04.163',-2.300
'0:04.164',-3.100
'0:04.165',-3.800
'0:04.166',-4.200
'0:04.167',-4.100
'0:04.168',-3.600
'0:04.169',-3.100
'0:04.170',-2.700
'0:04.171',-2.600
'0:04.172',-2.800
'0:04.173',-2.900
'0:04.174',-2.800
'0:04.175',-2.300
'0:04.176',-1.600
'0:04.177',-0.900
'0:04.178',-0.400
'0:04.179',-0.300
'0:04.180',-0.600
'0:04.181',-1.100
'0:04.182',-1.700
'0:04.183',-2.100
'0:04.184',-2.200
'0:04.185',-2.000
'0:04.186',-1.500
'0:04.187',-0.600
'0:04.188',0.600
'0:04.189',1.800
'0:04.190',2.700
'0:04.191',3.000
'0:04.192',2.500
'0:04.193',1.400
'0:04.194',-0.100
'0:04.195',-1.600
'0:04.196',-2.600
'0:04.197',-3.200
'0:04.198',-3.500
'0:04.199',-3.600
'0:04.200',-3.800
'0:04.201',-4.100
'0:04.202',-4.400
'0:04.203',-4.600
'0:04.204',-4.700
'0:04.205',-4.600
'0:04.206',-4.500
'0:04.207',-4.400
'0:04.208',-4.400
'0:04.209',-4.500
'0:04.210',-4.600
'0:04.211',-4.700
'0:04.212',-4.500
'0:04.213',-3.900
'0:04.214',-3.300
'0:04.215',-2.600
'0:04.216',-2.400
'0:04.217',-2.700
'0:04.218',-3.400
'0:04.219',-4.400
'0:04.220',-5.300
'0:04.221',-6.000
'0:04.222',-6.200
'0:04.223',-6.100
'0:04.224',-5.900
'0:04.225',-5.600
'0:04.226',-5.300
'0:04.227',-5.300
'0:04.228',-5.300
'0:04.229',-5.500
'0:04.230',-5.700
'0:04.231',-5.800
'0:04.232',-5.700
'0:04.233',-5.300
'0:04.234',-4.700
'0:04.235',-4.000
'0:04.236',-3.400
'0:04.237',-3.000
'0:04.238',-3.000
'0:04.239',-3.200
'0:04.240',-3.400
'0:04.241',-3.400
'0:04.242',-3.200
'0:04.243',-2.900
'0:04.244',-2.600
'0:04.245',-2.300
'0:04.246',-2.000
'0:04.247',-1.500
'0:04.248',-0.600
'0:04.249',0.700
'0:04.250',2.300
'0:04.251',4.000
'0:04.252',5.800
'0:04.253',7.700
'0:04.254',9.900
'0:04.255',12.300
'0:04.256',14.800
'0:04.257',17.200
'0:04.258',19.100
'0:04.259',20.500
'0:04.260',21.500
'0:04.261',22.500
'0:04.262',23.800
'0:04.263',25.800
'0:04.264',28.100
'0:04.265',30.500
'0:04.266',32.400
'0:04.267',33.401
'0:04.268',33.501
'0:04.269',33.101
'0:04.270',32.500
'0:04.271',32.100
'0:04.272',31.900
'0:04.273',31.900
'0:04.274',31.300
'0:04.275',30.000
'0:04.276',27.800
'0:04.277',25.000
'0:04.278',22.300
'0:04.279',20.400
'0:04.280',19.500
'0:04.281',19.200
'0:04.282',18.800
'0:04.283',17.400
'0:04.284',14.500
'0:04.285',10.400
'0:04.286',5.500
'0:04.287',0.700
'0:04.288',-3.800
'0:04.289',-8.000
'0:04.290',-12.200
'0:04.291',-16.600
'0:04.292',-21.000
'0:04.293',-25.000
'0:04.294',-28.000
'0:04.295',-29.700
'0:04.296',-30.300
'0:04.297',-29.900
'0:04.298',-29.100
'0:04.299',-28.000
'0:04.300',-27.000
'0:04.301',-26.300
'0:04.302',-25.900
'0:04.303',-25.800
'0:04.304',-25.700
'0:04.305',-25.400
'0:04.306',-24.800
'0:04.307',-23.600
'0:04.308',-22.100
'0:04.309',-20.500
'0:04.310',-18.900
'0:04.311',-17.700
'0:04.312',-16.800
'0:04.313',-16.300
'0:04.314',-16.000
'0:04.315',-15.700
'0:04.316',-14.900
'0:04.317',-13.600
'0:04.318',-11.700
'0:04.319',-9.300
'0:04.320',-7.000
'0:04.321',-5.100
'0:04.322',-3.800
'0:04.323',-3.100
'0:04.324',-2.700
'0:04.325',-2.400
'0:04.326',-2.000
'0:04.327',-1.500
'0:04.328',-1.100
'0:04.329',-1.000
'0:04.330',-1.300
'0:04.331',-2.000
'0:04.332',-3.000
'0:04.333',-3.900
'0:04.334',-4.700
'0:04.335',-5.300
'0:04.336',-5.800
'0:04.337',-6.300
'0:04.338',-7.000
'0:04.339',-7.800
'0:04.340',-8.400
'0:04.341',-8.600
'0:04.342',-8.500
'0:04.343',-8.100
'0:04.344',-7.800
'0:04.345',-7.800
'0:04.346',-8.200
'0:04.347',-8.700
'0:04.348',-8.900
'0:04.349',-8.600
'0:04.350',-8.000
'0:04.351',-7.500
'0:04.352',-7.400
'0:04.353',-7.600
'0:04.354',-7.900
'0:04.355',-7.800
'0:04.356',-7.200
'0:04.357',-6.200
'0:04.358',-5.200
'0:04.359',-4.700
'0:04.360',-4.900
'0:04.361',-5.400
'0:04.362',-6.000
'0:04.363',-6.200
'0:04.364',-5.900
'0:04.365',-5.400
'0:04.366',-4.800
'0:04.367',-4.500
'0:04.368',-4.500
'0:04.369',-4.800
'0:04.370',-5.100
'0:04.371',-5.100
'0:04.372',-4.600
'0:04.373',-3.400
'0:04.374',-1.600
'0:04.375',0.600
'0:04.376',2.900
'0:04.377',5.100
'0:04.378',7.100
'0:04.379',9.100
'0:04.380',11.500
'0:04.381',14.800
'0:04.382',19.100
'0:04.383',24.200
'0:04.384',29.200
'0:04.385',33.001
'0:04.386',35.001
'0:04.387',34.601
'0:04.388',32.300
'0:04.389',28.600
'0:04.390',24.300
'0:04.391',19.800
'0:04.392',15.300
'0:04.393',10.700
'0:04.394',5.800
'0:04.395',0.900
'0:04.396',-3.800
'0:04.397',-7.700
'0:04.398',-10.400
'0:04.399',-11.800
'0:04.400',-11.700
'0:04.401',-10.500
'0:04.402',-8.500
'0:04.403',-6.200
'0:04.404',-3.900
'0:04.405',-1.700
'0:04.406',0.200
'0:04.407',1.700
'0:04.408',2.900
'0:04.409',3.800
'0:04.410',4.200
'0:04.411',4.200
'0:04.412',3.900
'0:04.413',3.600
'0:04.414',3.600
'0:04.415',4.100
'0:04.416',5.000
'0:04.417',6.000
'0:04.418',6.700
'0:04.419',6.600
'0:04.420',5.800
'0:04.421',4.500
'0:04.422',3.300
'0:04.423',2.800
'0:04.424',3.100
'0:04.425',4.100
'0:04.426',5.300
'0:04.427',6.000
'0:04.428',6.200
'0:04.429',5.800
'0:04.430',5.100
'0:04.431',4.700
'0:04.432',4.600
'0:04.433',4.700
'0:04.434',5.100
'0:04.435',5.500
'0:04.436',6.000
'0:04.437',6.700
'0:04.438',7.600
'0:04.439',8.600
'0:04.440',9.600
'0:04.441',10.300
'0:04.442',10.800
'0:04.443',11.000
'0:04.444',11.300
'0:04.445',11.600
'0:04.446',12.100
'0:04.447',12.400
'0:04.448',12.400
'0:04.449',12.000
'0:04.450',11.100
'0:04.451',10.100
'0:04.452',9.100
'0:04.453',8.600
'0:04.454',8.500
'0:04.455',8.700
'0:04.456',9.100
'0:04.457',9.300
'0:04.458',9.100
'0:04.459',8.700
'0:04.460',8.000
'0:04.461',7.500
'0:04.462',7.400
'0:04.463',7.700
'0:04.464',8.400
'0:04.465',9.200
'0:04.466',9.800
'0:04.467',10.100
'0:04.468',10.300
'0:04.469',10.400
'0:04.470',10.700
'0:04.471',11.300
'0:04.472',12.000
'0:04.473',12.600
'0:04.474',13.000
'0:04.475',13.300
'0:04.476',13.600
'0:04.477',14.000
'0:04.478',14.400
'0:04.479',14.700
'0:04.480',14.700
'0:04.481',14.500
'0:04.482',14.400
'0:04.483',14.700
'0:04.484',15.500
'0:04.485',16.400
'0:04.486',17.100
'0:04.487',17.100
'0:04.488',16.600
'0:04.489',15.800
'0:04.490',15.200
'0:04.491',15.300
'0:04.492',15.800
'0:04.493',16.600
'0:04.494',17.200
'0:04.495',17.200
'0:04.496',16.600
'0:04.497',15.700
'0:04.498',14.800
'0:04.499',14.100
'0:04.500',13.900
'0:04.501',14.100
'0:04.502',14.600
'0:04.503',15.200
'0:04.504',15.600
'0:04.505',15.800
'0:04.506',15.600
'0:04.507',15.100
'0:04.508',14.600
'0:04.509',14.400
'0:04.510',14.800
'0:04.511',15.700
'0:04.512',17.000
'0:04.513',18.000
'0:04.514',18.500
'0:04.515',18.100
'0:04.516',17.100
'0:04.517',15.800
'0:04.518',14.700
'0:04.519',14.200
'0:04.520',14.200
'0:04.521',14.600
'0:04.522',14.900
'0:04.523',15.000
'0:04.524',14.800
'0:04.525',14.300
'0:04.526',13.600
'0:04.527',12.700
'0:04.528',11.900
'0:04.529',11.000
'0:04.530',10.500
'0:04.531',10.200
'0:04.532',10.300
'0:04.533',10.600
'0:04.534',10.900
'0:04.535',11.100
'0:04.536',11.100
'0:04.537',11.000
'0:04.538',10.800
'0:04.539',10.400
'0:04.540',9.900
'0:04.541',9.300
'0:04.542',8.900
'0:04.543',9.000
'0:04.544',9.600
'0:04.545',10.200
'0:04.546',10.500
'0:04.547',9.900
'0:04.548',8.300
'0:04.549',6.300
'0:04.550',4.400
'0:04.551',3.300
'0:04.552',3.200
'0:04.553',3.600
'0:04.554',4.100
'0:04.555',4.200
'0:04.556',3.700
'0:04.557',2.900
'0:04.558',2.200
'0:04.559',1.900
'0:04.560',1.800
'0:04.561',1.700
'0:04.562',1.500
'0:04.563',1.100
'0:04.564',0.600
'0:04.565',0.500
'0:04.566',0.900
'0:04.567',2.000
'0:04.568',3.400
'0:04.569',4.700
'0:04.570',5.300
'0:04.571',5.000
'0:04.572',3.800
'0:04.573',2.200
'0:04.574',0.600
'0:04.575',-0.500
'0:04.576',-1.100
'0:04.577',-1.300
'0:04.578',-1.400
'0:04.579',-1.600
'0:04.580',-1.900
'0:04.581',-2.400
'0:04.582',-2.800
'0:04.583',-3.200
'0:04.584',-3.500
'0:04.585',-3.800
'0:04.586',-4.200
'0:04.587',-4.400
'0:04.588',-4.500
'0:04.589',-4.400
'0:04.590',-4.100
'0:04.591',-3.800
'0:04.592',-3.700
'0:04.593',-3.800
'0:04.594',-4.000
'0:04.595',-4.000
'0:04.596',-4.000
'0:04.597',-3.700
'0:04.598',-3.500
'0:04.599',-3.400
'0:04.600',-3.500
'0:04.601',-3.800
'0:04.602',-4.200
'0:04.603',-4.700
'0:04.604',-5.100
'0:04.605',-5.300
'0:04.606',-5.400
'0:04.607',-5.400
'0:04.608',-5.300
'0:04.609',-5.200
'0:04.610',-5.300
'0:04.611',-5.300
'0:04.612',-5.300
'0:04.613',-5.000
'0:04.614',-4.500
'0:04.615',-3.900
'0:04.616',-3.400
'0:04.617',-3.300
'0:04.618',-3.400
'0:04.619',-3.600
'0:04.620',-3.700
'0:04.621',-3.800
'0:04.622',-3.800
'0:04.623',-3.900
'0:04.624',-4.300
'0:04.625',-5.000
'0:04.626',-5.900
'0:04.627',-6.600
'0:04.628',-7.000
'0:04.629',-7.100
'0:04.630',-7.000
'0:04.631',-7.000
'0:04.632',-7.100
'0:04.633',-7.300
'0:04.634',-7.500
'0:04.635',-7.600
'0:04.636',-7.400
'0:04.637',-6.800
'0:04.638',-6.000
'0:04.639',-5.000
'0:04.640',-4.200
'0:04.641',-3.600
'0:04.642',-3.400
'0:04.643',-3.700
'0:04.644',-4.200
'0:04.645',-4.800
'0:04.646',-5.100
'0:04.647',-5.100
'0:04.648',-4.800
'0:04.649',-4.200
'0:04.650',-3.500
'0:04.651',-2.800
'0:04.652',-2.300
'0:04.653',-1.700
'0:04.654',-1.200
'0:04.655',-0.700
'0:04.656',-0.300
'0:04.657',-0.300
'0:04.658',-0.700
'0:04.659',-1.300
'0:04.660',-2.000
'0:04.661',-2.400
'0:04.662',-2.400
'0:04.663',-1.800
'0:04.664',-0.800
'0:04.665',0.300
'0:04.666',1.000
'0:04.667',1.100
'0:04.668',0.500
'0:04.669',-0.700
'0:04.670',-2.000
'0:04.671',-3.200
'0:04.672',-3.900
'0:04.673',-4.100
'0:04.674',-4.100
'0:04.675',-4.100
'0:04.676',-4.300
'0:04.677',-4.900
'0:04.678',-5.900
'0:04.679',-6.900
'0:04.680',-7.700
'0:04.681',-8.200
'0:04.682',-8.300
'0:04.683',-8.100
'0:04.684',-8.000
'0:04.685',-7.900
'0:04.686',-7.800
'0:04.687',-7.600
'0:04.688',-7.000
'0:04.689',-5.800
'0:04.690',-4.300
'0:04.691',-2.800
'0:04.692',-1.700
'0:04.693',-1.200
'0:04.694',-1.300
'0:04.695',-1.600
'0:04.696',-1.800
'0:04.697',-2.000
'0:04.698',-2.300
'0:04.699',-2.900
'0:04.700',-4.000
'0:04.701',-5.400
'0:04.702',-6.900
'0:04.703',-8.100
'0:04.704',-8.700
'0:04.705',-8.700
'0:04.706',-8.300
'0:04.707',-7.600
'0:04.708',-6.900
'0:04.709',-6.100
'0:04.710',-5.500
'0:04.711',-5.100
'0:04.712',-5.000
'0:04.713',-5.300
'0:04.714',-5.800
'0:04.715',-6.300
'0:04.716',-6.600
'0:04.717',-6.700
'0:04.718',-6.500
'0:04.719',-6.200
'0:04.720',-6.100
'0:04.721',-6.200
'0:04.722',-6.500
'0:04.723',-7.200
'0:04.724',-8.100
'0:04.725',-9.100
'0:04.726',-10.100
'0:04.727',-10.900
'0:04.728',-11.300
'0:04.729',-11.200
'0:04.730',-10.500
'0:04.731',-9.400
'0:04.732',-8.400
'0:04.733',-7.800
'0:04.734',-7.700
'0:04.735',-8.200
'0:04.736',-8.900
'0:04.737',-9.600
'0:04.738',-10.000
'0:04.739',-10.000
'0:04.740',-9.700
'0:04.741',-9.400
'0:04.742',-9.200
'0:04.743',-9.300
'0:04.744',-9.500
'0:04.745',-9.700
'0:04.746',-9.600
'0:04.747',-9.300
'0:04.748',-8.800
'0:04.749',-8.200
'0:04.750',-7.800
'0:04.751',-7.500
'0:04.752',-7.300
'0:04.753',-7.000
'0:04.754',-6.500
'0:04.755',-6.000
'0:04.756',-5.600
'0:04.757',-5.600
'0:04.758',-6.000
'0:04.759',-6.400
'0:04.760',-6.700
'0:04.761',-6.600
'0:04.762',-6.200
'0:04.763',-5.800
'0:04.764',-5.900
'0:04.765',-6.500
'0:04.766',-7.700
'0:04.767',-9.100
'0:04.768',-10.000
'0:04.769',-10.200
'0:04.770',-9.500
'0:04.771',-8.100
'0:04.772',-6.200
'0:04.773',-4.400
'0:04.774',-3.100
'0:04.775',-2.700
'0:04.776',-3.200
'0:04.777',-4.500
'0:04.778',-6.000
'0:04.779',-7.300
'0:04.780',-7.800
'0:04.781',-7.400
'0:04.782',-6.400
'0:04.783',-5.200
'0:04.784',-4.400
'0:04.785',-4.100
'0:04.786',-4.200
'0:04.787',-4.400
'0:04.788',-4.500
'0:04.789',-4.600
'0:04.790',-4.800
'0:04.791',-4.900
'0:04.792',-5.000
'0:04.793',-4.700
'0:04.794',-4.100
'0:04.795',-3.100
'0:04.796',-2.300
'0:04.797',-2.100
'0:04.798',-2.700
'0:04.799',-3.700
'0:04.800',-4.500
'0:04.801',-4.700
'0:04.802',-4.300
'0:04.803',-3.500
'0:04.804',-3.000
'0:04.805',-3.200
'0:04.806',-3.800
'0:04.807',-4.600
'0:04.808',-5.000
'0:04.809',-4.600
'0:04.810',-3.400
'0:04.811',-1.900
'0:04.812',-0.300
'0:04.813',1.100
'0:04.814',2.100
'0:04.815',2.700
'0:04.816',3.000
'0:04.817',3.100
'0:04.818',3.100
'0:04.819',3.100
'0:04.820',3.100
'0:04.821',3.000
'0:04.822',2.700
'0:04.823',2.000
'0:04.824',0.900
'0:04.825',-0.500
'0:04.826',-1.900
'0:04.827',-3.100
'0:04.828',-4.200
'0:04.829',-5.100
'0:04.830',-6.100
'0:04.831',-7.300
'0:04.832',-8.800
'0:04.833',-10.500
'0:04.834',-12.200
'0:04.835',-13.500
'0:04.836',-14.300
'0:04.837',-14.400
'0:04.838',-14.100
'0:04.839',-13.400
'0:04.840',-12.200
'0:04.841',-10.600
'0:04.842',-8.300
'0:04.843',-5.600
'0:04.844',-2.900
'0:04.845',-0.600
'0:04.846',1.100
'0:04.847',2.600
'0:04.848',4.700
'0:04.849',8.300
'0:04.850',13.600
'0:04.851',19.700
'0:04.852',25.100
'0:04.853',28.500
'0:04.854',29.000
'0:04.855',27.100
'0:04.856',23.800
'0:04.857',20.300
'0:04.858',17.100
'0:04.859',13.900
'0:04.860',10.000
'0:04.861',4.700
'0:04.862',-1.700
'0:04.863',-8.400
'0:04.864',-14.400
'0:04.865',-18.500
'0:04.866',-20.600
'0:04.867',-20.800
'0:04.868',-19.800
'0:04.869',-18.500
'0:04.870',-17.100
'0:04.871',-15.800
'0:04.872',-14.500
'0:04.873',-13.100
'0:04.874',-11.500
'0:04.875',-10.000
'0:04.876',-8.700
'0:04.877',-7.800
'0:04.878',-7.200
'0:04.879',-7.000
'0:04.880',-6.900
'0:04.881',-7.000
'0:04.882',-7.000
'0:04.883',-7.100
'0:04.884',-7.100
'0:04.885',-7.100
'0:04.886',-7.000
'0:04.887',-7.000
'0:04.888',-7.000
'0:04.889',-7.300
'0:04.890',-7.600
'0:04.891',-8.000
'0:04.892',-8.200
'0:04.893',-8.200
'0:04.894',-7.900
'0:04.895',-7.500
'0:04.896',-6.800
'0:04.897',-6.100
'0:04.898',-5.400
'0:04.899',-4.600
'0:04.900',-4.000
'0:04.901',-3.700
'0:04.902',-3.900
'0:04.903',-4.500
'0:04.904',-5.300
'0:04.905',-5.800
'0:04.906',-6.000
'0:04.907',-5.800
'0:04.908',-5.400
'0:04.909',-5.200
'0:04.910',-5.400
'0:04.911',-5.800
'0:04.912',-6.300
'0:04.913',-6.600
'0:04.914',-6.400
'0:04.915',-6.000
'0:04.916',-5.500
'0:04.917',-5.200
'0:04.918',-5.200
'0:04.919',-5.300
'0:04.920',-5.300
'0:04.921',-5.100
'0:04.922',-4.700
'0:04.923',-4.200
'0:04.924',-4.000
'0:04.925',-4.100
'0:04.926',-4.300
'0:04.927',-4.500
'0:04.928',-4.400
'0:04.929',-4.100
'0:04.930',-3.500
'0:04.931',-2.700
'0:04.932',-1.500
'0:04.933',0.000
'0:04.934',1.600
'0:04.935',3.300
'0:04.936',4.800
'0:04.937',6.200
'0:04.938',7.600
'0:04.939',9.200
'0:04.940',11.200
'0:04.941',13.700
'0:04.942',16.400
'0:04.943',19.100
'0:04.944',21.800
'0:04.945',24.400
'0:04.946',27.300
'0:04.947',30.300
'0:04.948',33.301
'0:04.949',36.101
'0:04.950',38.401
'0:04.951',40.001
'0:04.952',40.901
'0:04.953',41.301
'0:04.954',41.101
'0:04.955',40.401
'0:04.956',39.201
'0:04.957',37.301
'0:04.958',34.801
'0:04.959',32.000
'0:04.960',29.400
'0:04.961',27.300
'0:04.962',25.800
'0:04.963',24.900
'0:04.964',24.200
'0:04.965',23.200
'0:04.966',21.600
'0:04.967',19.200
'0:04.968',16.200
'0:04.969',12.700
'0:04.970',8.900
'0:04.971',4.800
'0:04.972',0.200
'0:04.973',-4.800
'0:04.974',-10.200
'0:04.975',-15.400
'0:04.976',-19.800
'0:04.977',-22.900
'0:04.978',-24.700
'0:04.979',-25.400
'0:04.980',-25.500
'0:04.981',-25.600
'0:04.982',-25.800
'0:04.983',-26.300
'0:04.984',-26.700
'0:04.985',-26.900
'0:04.986',-27.000
'0:04.987',-26.800
'0:04.988',-26.400
'0:04.989',-25.900
'0:04.990',-25.400
'0:04.991',-25.000
'0:04.992',-24.600
'0:04.993',-23.900
'0:04.994',-22.900
'0:04.995',-21.300
'0:04.996',-19.400
'0:04.997',-17.500
'0:04.998',-16.000
'0:04.999',-15.100
'0:05.000',-14.700
'0:05.001',-14.500
'0:05.002',-13.900
'0:05.003',-12.700
'0:05.004',-11.000
'0:05.005',-9.200
'0:05.006',-7.700
'0:05.007',-6.800
'0:05.008',-6.700
'0:05.009',-6.900
'0:05.010',-7.200
'0:05.011',-7.200
'0:05.012',-6.800
'0:05.013',-6.200
'0:05.014',-5.400
'0:05.015',-4.700
'0:05.016',-4.100
'0:05.017',-3.600
'0:05.018',-3.300
'0:05.019',-3.200
'0:05.020',-3.200
'0:05.021',-3.600
'0:05.022',-4.100
'0:05.023',-4.600
'0:05.024',-4.800
'0:05.025',-4.600
'0:05.026',-4.000
'0:05.027',-3.200
'0:05.028',-2.300
'0:05.029',-1.600
'0:05.030',-1.200
'0:05.031',-1.100
'0:05.032',-1.300
'0:05.033',-1.700
'0:05.034',-2.500
'0:05.035',-3.600
'0:05.036',-4.900
'0:05.037',-6.300
'0:05.038',-7.300
'0:05.039',-7.600
'0:05.040',-7.300
'0:05.041',-6.500
'0:05.042',-5.500
'0:05.043',-4.900
'0:05.044',-4.700
'0:05.045',-5.000
'0:05.046',-5.500
'0:05.047',-5.900
'0:05.048',-6.000
'0:05.049',-5.800
'0:05.050',-5.200
'0:05.051',-4.500
'0:05.052',-3.600
'0:05.053',-2.500
'0:05.054',-1.300
'0:05.055',-0.300
'0:05.056',0.500
'0:05.057',0.700
'0:05.058',0.500
'0:05.059',-0.300
'0:05.060',-1.100
'0:05.061',-1.900
'0:05.062',-2.300
'0:05.063',-2.400
'0:05.064',-2.200
'0:05.065',-2.100
'0:05.066',-2.200
'0:05.067',-2.700
'0:05.068',-3.500
'0:05.069',-4.200
'0:05.070',-4.700
'0:05.071',-4.700
'0:05.072',-4.500
'0:05.073',-4.200
'0:05.074',-4.000
'0:05.075',-4.100
'0:05.076',-4.300
'0:05.077',-4.400
'0:05.078',-4.300
'0:05.079',-3.800
'0:05.080',-3.100
'0:05.081',-2.400
'0:05.082',-1.900
'0:05.083',-1.600
'0:05.084',-1.600
'0:05.085',-1.800
'0:05.086',-1.900
'0:05.087',-1.800
'0:05.088',-1.600
'0:05.089',-1.400
'0:05.090',-1.500
'0:05.091',-1.700
'0:05.092',-2.100
'0:05.093',-2.200
'0:05.094',-1.800
'0:05.095',-0.800
'0:05.096',0.600
'0:05.097',1.700
'0:05.098',2.200
'0:05.099',1.900
'0:05.100',1.000
'0:05.101',0.000
'0:05.102',-0.500
'0:05.103',-0.200
'0:05.104',0.600
'0:05.105',1.600
'0:05.106',2.200
'0:05.107',2.100
'0:05.108',1.400
'0:05.109',0.400
'0:05.110',-0.300
'0:05.111',-0.500
'0:05.112',-0.100
'0:05.113',0.600
'0:05.114',1.100
'0:05.115',1.200
'0:05.116',1.000
'0:05.117',1.000
'0:05.118',1.400
'0:05.119',2.300
'0:05.120',3.500
'0:05.121',4.300
'0:05.122',4.500
'0:05.123',4.200
'0:05.124',3.700
'0:05.125',3.600
'0:05.126',4.100
'0:05.127',4.700
'0:05.128',4.900
'0:05.129',4.400
'0:05.130',3.300
'0:05.131',2.400
'0:05.132',2.100
'0:05.133',2.700
'0:05.134',3.900
'0:05.135',5.000
'0:05.136',5.400
'0:05.137',5.300
'0:05.138',5.000
'0:05.139',5.200
'0:05.140',6.000
'0:05.141',7.200
'0:05.142',8.100
'0:05.143',8.300
'0:05.144',7.700
'0:05.145',7.100
'0:05.146',7.000
'0:05.147',7.700
'0:05.148',8.900
'0:05.149',9.700
'0:05.150',9.700
'0:05.151',8.700
'0:05.152',7.400
'0:05.153',6.500
'0:05.154',6.800
'0:05.155',8.200
'0:05.156',10.300
'0:05.157',12.100
'0:05.158',13.300
'0:05.159',13.600
'0:05.160',13.500
'0:05.161',13.400
'0:05.162',13.500
'0:05.163',13.700
'0:05.164',13.500
'0:05.165',12.700
'0:05.166',11.100
'0:05.167',9.200
'0:05.168',7.500
'0:05.169',6.800
'0:05.170',7.300
'0:05.171',8.600
'0:05.172',10.300
'0:05.173',11.500
'0:05.174',12.000
'0:05.175',11.900
'0:05.176',11.800
'0:05.177',12.100
'0:05.178',12.900
'0:05.179',13.900
'0:05.180',14.500
'0:05.181',14.300
'0:05.182',13.100
'0:05.183',11.400
'0:05.184',9.800
'0:05.185',8.900
'0:05.186',9.000
'0:05.187',9.700
'0:05.188',10.600
'0:05.189',11.100
'0:05.190',10.800
'0:05.191',10.100
'0:05.192',9.300
'0:05.193',9.000
'0:05.194',9.200
'0:05.195',9.900
'0:05.196',10.400
'0:05.197',10.500
'0:05.198',10.000
'0:05.199',9.300
'0:05.200',8.800
'0:05.201',8.900
'0:05.202',9.500
'0:05.203',10.300
'0:05.204',10.700
'0:05.205',10.300
'0:05.206',9.500
'0:05.207',8.600
'0:05.208',8.000
'0:05.209',7.800
'0:05.210',8.000
'0:05.211',8.300
'0:05.212',8.400
'0:05.213',8.400
'0:05.214',8.500
'0:05.215',8.600
'0:05.216',8.800
'0:05.217',8.800
'0:05.218',8.500
'0:05.219',7.700
'0:05.220',6.600
'0:05.221',5.500
'0:05.222',4.700
'0:05.223',4.300
'0:05.224',4.500
'0:05.225',5.000
'0:05.226',5.600
'0:05.227',6.100
'0:05.228',6.200
'0:05.229',5.800
'0:05.230',5.000
'0:05.231',4.200
'0:05.232',3.600
'0:05.233',3.400
'0:05.234',3.500
'0:05.235',3.700
'0:05.236',3.800
'0:05.237',3.600
'0:05.238',3.200
'0:05.239',2.900
'0:05.240',2.600
'0:05.241',2.400
'0:05.242',2.100
'0:05.243',1.700
'0:05.244',0.900
'0:05.245',0.000
'0:05.246',-0.800
'0:05.247',-1.500
'0:05.248',-1.800
'0:05.249',-1.800
'0:05.250',-1.500
'0:05.251',-1.000
'0:05.252',-0.400
'0:05.253',0.300
'0:05.254',0.900
'0:05.255',1.400
'0:05.256',1.700
'0:05.257',1.900
'0:05.258',1.800
'0:05.259',1.400
'0:05.260',0.800
'0:05.261',0.200
'0:05.262',-0.500
'0:05.263',-1.300
'0:05.264',-2.200
'0:05.265',-3.200
'0:05.266',-4.200
'0:05.267',-5.200
'0:05.268',-5.700
'0:05.269',-5.800
'0:05.270',-5.600
'0:05.271',-5.200
'0:05.272',-5.200
'0:05.273',-5.500
'0:05.274',-6.100
'0:05.275',-6.600
'0:05.276',-6.900
'0:05.277',-6.700
'0:05.278',-6.300
'0:05.279',-6.000
'0:05.280',-5.900
'0:05.281',-6.000
'0:05.282',-6.100
'0:05.283',-6.000
'0:05.284',-5.500
'0:05.285',-5.100
'0:05.286',-5.000
'0:05.287',-5.400
'0:05.288',-6.000
'0:05.289',-6.700
'0:05.290',-6.900
'0:05.291',-6.600
'0:05.292',-6.000
'0:05.293',-5.500
'0:05.294',-5.400
'0:05.295',-5.700
'0:05.296',-5.900
'0:05.297',-6.000
'0:05.298',-5.700
'0:05.299',-5.300
'0:05.300',-5.000
'0:05.301',-5.100
'0:05.302',-5.500
'0:05.303',-6.300
'0:05.304',-7.200
'0:05.305',-8.200
'0:05.306',-9.100
'0:05.307',-9.700
'0:05.308',-10.100
'0:05.309',-10.100
'0:05.310',-9.700
'0:05.311',-9.100
'0:05.312',-8.200
'0:05.313',-7.100
'0:05.314',-5.700
'0:05.315',-4.000
'0:05.316',-2.200
'0:05.317',0.000
'0:05.318',2.800
'0:05.319',6.400
'0:05.320',11.300
'0:05.321',16.900
'0:05.322',22.400
'0:05.323',26.600
'0:05.324',28.500
'0:05.325',27.800
'0:05.326',25.100
'0:05.327',21.500
'0:05.328',17.700
'0:05.329',14.200
'0:05.330',10.800
'0:05.331',7.000
'0:05.332',2.600
'0:05.333',-2.300
'0:05.334',-7.200
'0:05.335',-11.500
'0:05.336',-14.700
'0:05.337',-16.800
'0:05.338',-17.900
'0:05.339',-18.000
'0:05.340',-17.200
'0:05.341',-15.500
'0:05.342',-13.000
'0:05.343',-10.200
'0:05.344',-7.600
'0:05.345',-5.500
'0:05.346',-3.900
'0:05.347',-2.800
'0:05.348',-1.900
'0:05.349',-1.200
'0:05.350',-0.700
'0:05.351',-0.600
'0:05.352',-1.100
'0:05.353',-2.000
'0:05.354',-2.900
'0:05.355',-3.600
'0:05.356',-3.900
'0:05.357',-3.900
'0:05.358',-3.800
'0:05.359',-3.700
'0:05.360',-3.600
'0:05.361',-3.600
'0:05.362',-3.500
'0:05.363',-3.700
'0:05.364',-4.100
'0:05.365',-4.700
'0:05.366',-5.100
'0:05.367',-5.000
'0:05.368',-4.200
'0:05.369',-2.900
'0:05.370',-1.300
'0:05.371',0.100
'0:05.372',0.900
'0:05.373',1.100
'0:05.374',0.600
'0:05.375',-0.100
'0:05.376',-0.900
'0:05.377',-1.400
'0:05.378',-1.600
'0:05.379',-1.600
'0:05.380',-1.500
'0:05.381',-1.700
'0:05.382',-2.500
'0:05.383',-3.700
'0:05.384',-4.900
'0:05.385',-5.700
'0:05.386',-5.500
'0:05.387',-4.500
'0:05.388',-3.100
'0:05.389',-2.000
'0:05.390',-1.600
'0:05.391',-2.200
'0:05.392',-3.400
'0:05.393',-4.700
'0:05.394',-5.700
'0:05.395',-6.100
'0:05.396',-5.900
'0:05.397',-5.500
'0:05.398',-5.100
'0:05.399',-4.900
'0:05.400',-4.900
'0:05.401',-5.000
'0:05.402',-5.100
'0:05.403',-5.000
'0:05.404',-5.100
'0:05.405',-5.300
'0:05.406',-5.600
'0:05.407',-6.000
'0:05.408',-6.300
'0:05.409',-6.300
'0:05.410',-6.300
'0:05.411',-6.400
'0:05.412',-6.600
'0:05.413',-6.800
'0:05.414',-6.700
'0:05.415',-6.100
'0:05.416',-5.000
'0:05.417',-3.700
'0:05.418',-2.900
'0:05.419',-2.800
'0:05.420',-3.400
'0:05.421',-4.300
'0:05.422',-5.000
'0:05.423',-5.000
'0:05.424',-4.600
'0:05.425',-4.100
'0:05.426',-3.900
'0:05.427',-4.300
'0:05.428',-4.900
'0:05.429',-5.400
'0:05.430',-5.500
'0:05.431',-5.100
'0:05.432',-4.500
'0:05.433',-4.100
'0:05.434',-4.200
'0:05.435',-4.800
'0:05.436',-5.500
'0:05.437',-6.000
'0:05.438',-5.900
'0:05.439',-5.500
'0:05.440',-4.800
'0:05.441',-4.300
'0:05.442',-4.100
'0:05.443',-4.300
'0:05.444',-4.600
'0:05.445',-4.900
'0:05.446',-4.700
'0:05.447',-4.100
'0:05.448',-3.300
'0:05.449',-2.600
'0:05.450',-2.500
'0:05.451',-3.100
'0:05.452',-4.200
'0:05.453',-5.500
'0:05.454',-6.400
'0:05.455',-6.500
'0:05.456',-5.900
'0:05.457',-4.700
'0:05.458',-3.500
'0:05.459',-2.800
'0:05.460',-2.700
'0:05.461',-3.100
'0:05.462',-3.400
'0:05.463',-3.100
'0:05.464',-1.900
'0:05.465',0.100
'0:05.466',2.300
'0:05.467',3.900
'0:05.468',4.400
'0:05.469',3.600
'0:05.470',2.000
'0:05.471',0.000
'0:05.472',-1.600
'0:05.473',-2.600
'0:05.474',-3.200
'0:05.475',-3.500
'0:05.476',-3.800
'0:05.477',-3.900
'0:05.478',-3.800
'0:05.479',-3.300
'0:05.480',-2.500
'0:05.481',-1.900
'0:05.482',-1.700
'0:05.483',-2.200
'0:05.484',-3.000
'0:05.485',-3.800
'0:05.486',-4.200
'0:05.487',-4.000
'0:05.488',-3.600
'0:05.489',-3.200
'0:05.490',-3.100
'0:05.491',-3.400
'0:05.492',-3.800
'0:05.493',-4.100
'0:05.494',-3.900
'0:05.495',-3.200
'0:05.496',-2.100
'0:05.497',-1.000
'0:05.498',-0.200
'0:05.499',-0.200
'0:05.500',-1.000
'0:05.501',-2.300
'0:05.502',-3.600
'0:05.503',-4.600
'0:05.504',-5.000
'0:05.505',-4.800
'0:05.506',-4.400
'0:05.507',-4.100
'0:05.508',-3.900
'0:05.509',-4.000
'0:05.510',-4.200
'0:05.511',-4.300
'0:05.512',-4.400
'0:05.513',-4.500
'0:05.514',-4.600
'0:05.515',-4.700
'0:05.516',-4.800
'0:05.517',-4.900
'0:05.518',-5.000
'0:05.519',-5.200
'0:05.520',-5.400
'0:05.521',-5.700
'0:05.522',-5.800
'0:05.523',-5.500
'0:05.524',-4.800
'0:05.525',-3.800
'0:05.526',-2.800
'0:05.527',-2.100
'0:05.528',-2.100
'0:05.529',-2.700
'0:05.530',-3.900
'0:05.531',-5.200
'0:05.532',-6.500
'0:05.533',-7.300
'0:05.534',-7.400
'0:05.535',-6.900
'0:05.536',-5.900
'0:05.537',-4.600
'0:05.538',-3.500
'0:05.539',-2.800
'0:05.540',-2.800
'0:05.541',-3.300
'0:05.542',-4.000
'0:05.543',-4.500
'0:05.544',-4.400
'0:05.545',-3.700
'0:05.546',-2.600
'0:05.547',-1.700
'0:05.548',-1.600
'0:05.549',-2.200
'0:05.550',-3.500
'0:05.551',-4.900
'0:05.552',-5.600
'0:05.553',-5.500
'0:05.554',-4.700
'0:05.555',-3.700
'0:05.556',-3.100
'0:05.557',-3.100
'0:05.558',-3.600
'0:05.559',-4.100
'0:05.560',-4.300
'0:05.561',-4.100
'0:05.562',-3.700
'0:05.563',-3.500
'0:05.564',-3.700
'0:05.565',-4.400
'0:05.566',-5.200
'0:05.567',-5.800
'0:05.568',-5.600
'0:05.569',-4.700
'0:05.570',-3.200
'0:05.571',-1.600
'0:05.572',-0.400
'0:05.573',0.100
'0:05.574',-0.100
'0:05.575',-0.700
'0:05.576',-1.200
'0:05.577',-1.400
'0:05.578',-1.300
'0:05.579',-1.300
'0:05.580',-1.700
'0:05.581',-2.800
'0:05.582',-4.200
'0:05.583',-5.600
'0:05.584',-6.600
'0:05.585',-7.200
'0:05.586',-7.400
'0:05.587',-7.400
'0:05.588',-7.600
'0:05.589',-7.600
'0:05.590',-7.400
'0:05.591',-6.900
'0:05.592',-6.100
'0:05.593',-5.200
'0:05.594',-4.400
'0:05.595',-3.900
'0:05.596',-3.600
'0:05.597',-3.500
'0:05.598',-3.500
'0:05.599',-3.600
'0:05.600',-3.500
'0:05.601',-3.200
'0:05.602',-2.600
'0:05.603',-1.800
'0:05.604',-1.000
'0:05.605',-0.600
'0:05.606',-0.600
'0:05.607',-1.100
'0:05.608',-1.700
'0:05.609',-1.900
'0:05.610',-1.600
'0:05.611',-0.600
'0:05.612',0.800
'0:05.613',2.500
'0:05.614',4.200
'0:05.615',5.800
'0:05.616',7.400
'0:05.617',9.100
'0:05.618',10.800
'0:05.619',12.600
'0:05.620',14.400
'0:05.621',16.100
'0:05.622',17.800
'0:05.623',19.600
'0:05.624',21.600
'0:05.625',23.900
'0:05.626',26.500
'0:05.627',29.000
'0:05.628',31.300
'0:05.629',33.101
'0:05.630',34.401
'0:05.631',35.101
'0:05.632',35.701
'0:05.633',36.101
'0:05.634',36.501
'0:05.635',36.501
'0:05.636',36.001
'0:05.637',34.901
'0:05.638',33.101
'0:05.639',31.000
'0:05.640',28.900
'0:05.641',26.900
'0:05.642',25.100
'0:05.643',23.500
'0:05.644',22.300
'0:05.645',21.400
'0:05.646',20.900
'0:05.647',20.400
'0:05.648',19.700
'0:05.649',18.200
'0:05.650',15.400
'0:05.651',11.300
'0:05.652',6.000
'0:05.653',0.200
'0:05.654',-5.600
'0:05.655',-10.700
'0:05.656',-14.800
'0:05.657',-17.700
'0:05.658',-19.500
'0:05.659',-20.500
'0:05.660',-20.800
'0:05.661',-20.700
'0:05.662',-20.600
'0:05.663',-20.500
'0:05.664',-20.600
'0:05.665',-20.700
'0:05.666',-20.800
'0:05.667',-21.000
'0:05.668',-21.000
'0:05.669',-21.000
'0:05.670',-20.900
'0:05.671',-20.600
'0:05.672',-20.000
'0:05.673',-19.200
'0:05.674',-18.500
'0:05.675',-17.900
'0:05.676',-17.600
'0:05.677',-17.600
'0:05.678',-17.500
'0:05.679',-17.100
'0:05.680',-16.200
'0:05.681',-14.800
'0:05.682',-13.300
'0:05.683',-12.000
'0:05.684',-11.300
'0:05.685',-11.000
'0:05.686',-11.100
'0:05.687',-11.000
'0:05.688',-10.600
'0:05.689',-9.900
'0:05.690',-9.200
'0:05.691',-8.700
'0:05.692',-8.700
'0:05.693',-8.900
'0:05.694',-8.800
'0:05.695',-8.100
'0:05.696',-6.800
'0:05.697',-5.200
'0:05.698',-3.700
'0:05.699',-2.700
'0:05.700',-2.400
'0:05.701',-2.700
'0:05.702',-3.200
'0:05.703',-3.600
'0:05.704',-3.900
'0:05.705',-3.700
'0:05.706',-3.200
'0:05.707',-2.300
'0:05.708',-1.200
'0:05.709',-0.200
'0:05.710',0.400
'0:05.711',0.500
'0:05.712',0.000
'0:05.713',-1.000
'0:05.714',-1.800
'0:05.715',-2.200
'0:05.716',-2.000
'0:05.717',-1.200
'0:05.718',-0.200
'0:05.719',0.500
'0:05.720',0.700
'0:05.721',0.300
'0:05.722',-0.400
'0:05.723',-1.000
'0:05.724',-1.200
'0:05.725',-0.900
'0:05.726',-0.400
'0:05.727',-0.100
'0:05.728',-0.200
'0:05.729',-0.600
'0:05.730',-1.100
'0:05.731',-1.300
'0:05.732',-1.200
'0:05.733',-0.900
'0:05.734',-0.500
'0:05.735',-0.500
'0:05.736',-0.900
'0:05.737',-1.300
'0:05.738',-1.500
'0:05.739',-1.200
'0:05.740',-0.500
'0:05.741',0.300
'0:05.742',0.700
'0:05.743',0.700
'0:05.744',0.300
'0:05.745',-0.200
'0:05.746',-0.600
'0:05.747',-0.800
'0:05.748',-0.900
'0:05.749',-0.900
'0:05.750',-1.100
'0:05.751',-1.200
'0:05.752',-1.100
'0:05.753',-0.800
'0:05.754',-0.300
'0:05.755',0.200
'0:05.756',0.500
'0:05.757',0.600
'0:05.758',0.500
'0:05.759',0.300
'0:05.760',0.100
'0:05.761',-0.200
'0:05.762',-0.500
'0:05.763',-0.900
'0:05.764',-1.200
'0:05.765',-1.100
'0:05.766',-0.700
'0:05.767',0.100
'0:05.768',1.100
'0:05.769',1.800
'0:05.770',2.100
'0:05.771',1.900
'0:05.772',1.300
'0:05.773',0.400
'0:05.774',-0.500
'0:05.775',-1.400
'0:05.776',-2.200
'0:05.777',-2.900
'0:05.778',-3.400
'0:05.779',-3.800
'0:05.780',-3.800
'0:05.781',-3.400
'0:05.782',-2.400
'0:05.783',-0.900
'0:05.784',1.000
'0:05.785',3.200
'0:05.786',5.800
'0:05.787',9.000
'0:05.788',13.200
'0:05.789',18.500
'0:05.790',24.300
'0:05.791',29.900
'0:05.792',34.101
'0:05.793',36.301
'0:05.794',36.001
'0:05.795',33.801
'0:05.796',30.300
'0:05.797',26.000
'0:05.798',21.400
'0:05.799',16.400
'0:05.800',10.900
'0:05.801',5.000
'0:05.802',-0.900
'0:05.803',-6.300
'0:05.804',-10.300
'0:05.805',-12.600
'0:05.806',-13.200
'0:05.807',-12.400
'0:05.808',-11.000
'0:05.809',-9.400
'0:05.810',-7.900
'0:05.811',-6.400
'0:05.812',-4.800
'0:05.813',-2.900
'0:05.814',-1.000
'0:05.815',0.600
'0:05.816',1.800
'0:05.817',2.200
'0:05.818',2.200
'0:05.819',2.000
'0:05.820',1.900
'0:05.821',2.100
'0:05.822',2.300
'0:05.823',2.500
'0:05.824',2.600
'0:05.825',2.600
'0:05.826',2.800
'0:05.827',3.300
'0:05.828',3.800
'0:05.829',4.400
'0:05.830',4.800
'0:05.831',4.900
'0:05.832',4.800
'0:05.833',4.500
'0:05.834',4.000
'0:05.835',3.500
'0:05.836',3.100
'0:05.837',2.900
'0:05.838',3.000
'0:05.839',3.200
'0:05.840',3.200
'0:05.841',2.700
'0:05.842',1.800
'0:05.843',1.000
'0:05.844',0.700
'0:05.845',1.100
'0:05.846',2.000
'0:05.847',2.900
'0:05.848',3.100
'0:05.849',2.700
'0:05.850',1.900
'0:05.851',1.400
'0:05.852',1.800
'0:05.853',3.100
'0:05.854',4.900
'0:05.855',6.500
'0:05.856',7.500
'0:05.857',7.900
'0:05.858',7.900
'0:05.859',7.800
'0:05.860',7.800
'0:05.861',8.000
'0:05.862',8.400
'0:05.863',9.000
'0:05.864',9.700
'0:05.865',10.500
'0:05.866',11.200
'0:05.867',11.600
'0:05.868',11.600
'0:05.869',11.200
'0:05.870',10.400
'0:05.871',9.700
'0:05.872',9.100
'0:05.873',8.700
'0:05.874',8.500
'0:05.875',8.200
'0:05.876',7.800
'0:05.877',7.200
'0:05.878',6.600
'0:05.879',6.200
'0:05.880',6.100
'0:05.881',6.300
'0:05.882',6.500
'0:05.883',6.700
'0:05.884',6.600
'0:05.885',6.500
'0:05.886',6.300
'0:05.887',6.400
'0:05.888',6.700
'0:05.889',7.100
'0:05.890',7.400
'0:05.891',7.500
'0:05.892',7.400
'0:05.893',7.200
'0:05.894',6.900
'0:05.895',6.900
'0:05.896',7.000
'0:05.897',7.200
'0:05.898',7.400
'0:05.899',7.700
'0:05.900',8.100
'0:05.901',8.400
'0:05.902',8.500
'0:05.903',8.200
'0:05.904',7.500
'0:05.905',6.400
'0:05.906',5.400
'0:05.907',4.900
'0:05.908',5.100
'0:05.909',5.500
'0:05.910',5.800
'0:05.911',5.700
'0:05.912',5.100
'0:05.913',4.300
'0:05.914',3.800
'0:05.915',3.600
'0:05.916',3.700
'0:05.917',3.700
'0:05.918',3.500
'0:05.919',3.000
'0:05.920',2.500
'0:05.921',2.300
'0:05.922',2.500
'0:05.923',2.900
'0:05.924',3.100
'0:05.925',2.900
'0:05.926',2.400
'0:05.927',1.700
'0:05.928',1.100
'0:05.929',0.800
'0:05.930',0.800
'0:05.931',1.100
'0:05.932',1.500
'0:05.933',1.900
'0:05.934',2.000
'0:05.935',1.800
'0:05.936',1.200
'0:05.937',0.500
'0:05.938',0.000
'0:05.939',-0.300
'0:05.940',-0.200
'0:05.941',-0.100
'0:05.942',0.000
'0:05.943',-0.100
'0:05.944',-0.200
'0:05.945',-0.200
'0:05.946',-0.200
'0:05.947',-0.300
'0:05.948',-0.500
'0:05.949',-0.600
'0:05.950',-0.600
'0:05.951',-0.200
'0:05.952',0.300
'0:05.953',0.900
'0:05.954',1.200
'0:05.955',1.200
'0:05.956',1.200
'0:05.957',1.300
'0:05.958',1.500
'0:05.959',1.500
'0:05.960',1.200
'0:05.961',0.500
'0:05.962',-0.400
'0:05.963',-1.100
'0:05.964',-1.400
'0:05.965',-1.600
'0:05.966',-1.800
'0:05.967',-2.300
'0:05.968',-3.100
'0:05.969',-3.800
'0:05.970',-4.200
'0:05.971',-4.200
'0:05.972',-4.000
'0:05.973',-3.900
'0:05.974',-4.300
'0:05.975',-4.900
'0:05.976',-5.400
'0:05.977',-5.500
'0:05.978',-5.200
'0:05.979',-4.700
'0:05.980',-4.500
'0:05.981',-5.000
'0:05.982',-6.200
'0:05.983',-7.600
'0:05.984',-8.600
'0:05.985',-8.700
'0:05.986',-7.600
'0:05.987',-5.700
'0:05.988',-3.700
'0:05.989',-2.400
'0:05.990',-2.200
'0:05.991',-3.100
'0:05.992',-4.600
'0:05.993',-5.900
'0:05.994',-6.700
'0:05.995',-6.900
'0:05.996',-6.700
'0:05.997',-6.500
'0:05.998',-6.500
'0:05.999',-6.700
'0:06.000',-6.700
'0:06.001',-6.300
'0:06.002',-5.700
'0:06.003',-5.000
'0:06.004',-4.600
'0:06.005',-4.600
'0:06.006',-5.000
'0:06.007',-5.400
'0:06.008',-5.700
'0:06.009',-5.800
'0:06.010',-5.900
'0:06.011',-6.100
'0:06.012',-6.500
'0:06.013',-6.900
'0:06.014',-7.000
'0:06.015',-6.700
'0:06.016',-6.100
'0:06.017',-5.500
'0:06.018',-5.200
'0:06.019',-5.300
'0:06.020',-5.800
'0:06.021',-6.200
'0:06.022',-6.400
'0:06.023',-6.300
'0:06.024',-6.000
'0:06.025',-5.800
'0:06.026',-6.000
'0:06.027',-6.300
'0:06.028',-6.500
'0:06.029',-6.300
'0:06.030',-5.700
'0:06.031',-5.100
'0:06.032',-4.600
'0:06.033',-4.800
'0:06.034',-5.400
'0:06.035',-6.200
'0:06.036',-6.600
'0:06.037',-6.300
'0:06.038',-5.400
'0:06.039',-4.400
'0:06.040',-3.700
'0:06.041',-3.700
'0:06.042',-4.000
'0:06.043',-4.200
'0:06.044',-3.800
'0:06.045',-2.600
'0:06.046',-1.000
'0:06.047',0.200
'0:06.048',0.400
'0:06.049',-0.500
'0:06.050',-1.800
'0:06.051',-2.800
'0:06.052',-3.000
'0:06.053',-2.300
'0:06.054',-1.400
'0:06.055',-1.200
'0:06.056',-2.200
'0:06.057',-4.400
'0:06.058',-6.900
'0:06.059',-8.900
'0:06.060',-9.700
'0:06.061',-9.400
'0:06.062',-8.400
'0:06.063',-7.400
'0:06.064',-6.900
'0:06.065',-7.200
'0:06.066',-7.900
'0:06.067',-8.700
'0:06.068',-9.300
'0:06.069',-9.500
'0:06.070',-9.300
'0:06.071',-8.700
'0:06.072',-7.900
'0:06.073',-7.000
'0:06.074',-6.000
'0:06.075',-5.100
'0:06.076',-4.400
'0:06.077',-4.200
'0:06.078',-4.500
'0:06.079',-5.200
'0:06.080',-6.100
'0:06.081',-7.000
'0:06.082',-7.700
'0:06.083',-8.100
'0:06.084',-8.100
'0:06.085',-8.000
'0:06.086',-7.900
'0:06.087',-8.000
'0:06.088',-8.400
'0:06.089',-8.900
'0:06.090',-9.100
'0:06.091',-8.900
'0:06.092',-8.500
'0:06.093',-8.000
'0:06.094',-7.700
'0:06.095',-7.500
'0:06.096',-7.300
'0:06.097',-6.900
'0:06.098',-6.100
'0:06.099',-5.300
'0:06.100',-4.600
'0:06.101',-4.500
'0:06.102',-4.800
'0:06.103',-5.300
'0:06.104',-5.700
'0:06.105',-5.700
'0:06.106',-5.300
'0:06.107',-4.800
'0:06.108',-4.500
'0:06.109',-4.400
'0:06.110',-4.300
'0:06.111',-4.100
'0:06.112',-3.700
'0:06.113',-3.200
'0:06.114',-3.100
'0:06.115',-3.500
'0:06.116',-4.600
'0:06.117',-6.000
'0:06.118',-7.000
'0:06.119',-7.400
'0:06.120',-7.000
'0:06.121',-6.000
'0:06.122',-5.000
'0:06.123',-4.400
'0:06.124',-4.300
'0:06.125',-4.600
'0:06.126',-4.900
'0:06.127',-5.100
'0:06.128',-5.000
'0:06.129',-4.800
'0:06.130',-4.800
'0:06.131',-5.100
'0:06.132',-5.400
'0:06.133',-5.700
'0:06.134',-5.600
'0:06.135',-5.200
'0:06.136',-4.700
'0:06.137',-4.400
'0:06.138',-4.300
'0:06.139',-4.300
'0:06.140',-4.200
'0:06.141',-3.600
'0:06.142',-2.500
'0:06.143',-1.500
'0:06.144',-0.800
'0:06.145',-0.900
'0:06.146',-2.000
'0:06.147',-3.800
'0:06.148',-5.600
'0:06.149',-6.900
'0:06.150',-7.400
'0:06.151',-7.300
'0:06.152',-7.000
'0:06.153',-6.900
'0:06.154',-7.400
'0:06.155',-8.200
'0:06.156',-8.700
'0:06.157',-8.600
'0:06.158',-7.900
'0:06.159',-6.900
'0:06.160',-6.200
'0:06.161',-6.200
'0:06.162',-7.000
'0:06.163',-8.000
'0:06.164',-8.800
'0:06.165',-9.100
'0:06.166',-8.900
'0:06.167',-8.400
'0:06.168',-8.100
'0:06.169',-7.900
'0:06.170',-7.700
'0:06.171',-7.400
'0:06.172',-6.900
'0:06.173',-6.500
'0:06.174',-6.200
'0:06.175',-6.100
'0:06.176',-6.200
'0:06.177',-6.200
'0:06.178',-6.100
'0:06.179',-6.000
'0:06.180',-6.100
'0:06.181',-6.400
'0:06.182',-6.900
'0:06.183',-7.400
'0:06.184',-7.900
'0:06.185',-8.200
'0:06.186',-8.400
'0:06.187',-8.400
'0:06.188',-8.500
'0:06.189',-8.600
'0:06.190',-8.700
'0:06.191',-8.900
'0:06.192',-9.100
'0:06.193',-9.400
'0:06.194',-9.500
'0:06.195',-9.300
'0:06.196',-8.700
'0:06.197',-7.700
'0:06.198',-6.500
'0:06.199',-5.500
'0:06.200',-4.900
'0:06.201',-4.600
'0:06.202',-4.700
'0:06.203',-4.900
'0:06.204',-5.300
'0:06.205',-5.700
'0:06.206',-6.100
'0:06.207',-6.400
'0:06.208',-6.500
'0:06.209',-6.300
'0:06.210',-5.900
'0:06.211',-5.600
'0:06.212',-5.400
'0:06.213',-5.400
'0:06.214',-5.500
'0:06.215',-5.700
'0:06.216',-5.900
'0:06.217',-6.000
'0:06.218',-6.100
'0:06.219',-6.200
'0:06.220',-6.100
'0:06.221',-5.900
'0:06.222',-5.500
'0:06.223',-5.200
'0:06.224',-5.200
'0:06.225',-5.500
'0:06.226',-6.100
'0:06.227',-6.700
'0:06.228',-7.100
'0:06.229',-7.200
'0:06.230',-6.900
'0:06.231',-6.500
'0:06.232',-6.000
'0:06.233',-5.700
'0:06.234',-5.400
'0:06.235',-5.100
'0:06.236',-4.900
'0:06.237',-4.600
'0:06.238',-4.300
'0:06.239',-4.000
'0:06.240',-4.000
'0:06.241',-4.300
'0:06.242',-5.000
'0:06.243',-6.000
'0:06.244',-7.000
'0:06.245',-7.600
'0:06.246',-7.500
'0:06.247',-6.800
'0:06.248',-5.600
'0:06.249',-4.200
'0:06.250',-2.700
'0:06.251',-1.200
'0:06.252',0.500
'0:06.253',2.900
'0:06.254',6.400
'0:06.255',11.200
'0:06.256',16.900
'0:06.257',22.600
'0:06.258',27.300
'0:06.259',29.900
'0:06.260',30.000
'0:06.261',27.900
'0:06.262',24.500
'0:06.263',20.500
'0:06.264',16.700
'0:06.265',13.100
'0:06.266',9.400
'0:06.267',5.300
'0:06.268',1.100
'0:06.269',-2.900
'0:06.270',-6.100
'0:06.271',-8.200
'0:06.272',-9.100
'0:06.273',-8.800
'0:06.274',-7.500
'0:06.275',-5.400
'0:06.276',-2.500
'0:06.277',0.800
'0:06.278',4.600
'0:06.279',8.500
'0:06.280',12.600
'0:06.281',16.600
'0:06.282',20.500
'0:06.283',24.100
'0:06.284',27.000
'0:06.285',29.000
'0:06.286',30.100
'0:06.287',30.700
'0:06.288',31.000
'0:06.289',31.300
'0:06.290',31.400
'0:06.291',31.200
'0:06.292',30.600
'0:06.293',29.500
'0:06.294',27.800
'0:06.295',25.700
'0:06.296',23.400
'0:06.297',21.300
'0:06.298',19.600
'0:06.299',18.700
'0:06.300',18.500
'0:06.301',18.700
'0:06.302',18.600
'0:06.303',17.100
'0:06.304',14.100
'0:06.305',9.500
'0:06.306',4.100
'0:06.307',-1.500
'0:06.308',-6.500
'0:06.309',-11.000
'0:06.310',-15.100
'0:06.311',-19.100
'0:06.312',-22.800
'0:06.313',-26.100
'0:06.314',-28.400
'0:06.315',-29.600
'0:06.316',-29.600
'0:06.317',-28.800
'0:06.318',-27.500
'0:06.319',-26.100
'0:06.320',-25.000
'0:06.321',-24.400
'0:06.322',-24.300
'0:06.323',-24.700
'0:06.324',-25.300
'0:06.325',-25.800
'0:06.326',-25.900
'0:06.327',-25.500
'0:06.328',-24.600
'0:06.329',-23.500
'0:06.330',-22.400
'0:06.331',-21.600
'0:06.332',-20.800
'0:06.333',-20.000
'0:06.334',-19.100
'0:06.335',-18.000
'0:06.336',-16.600
'0:06.337',-15.000
'0:06.338',-13.200
'0:06.339',-11.400
'0:06.340',-9.800
'0:06.341',-8.600
'0:06.342',-7.900
'0:06.343',-7.500
'0:06.344',-7.200
'0:06.345',-6.800
'0:06.346',-6.300
'0:06.347',-5.900
'0:06.348',-5.800
'0:06.349',-6.000
'0:06.350',-6.500
'0:06.351',-6.900
'0:06.352',-7.300
'0:06.353',-7.500
'0:06.354',-7.700
'0:06.355',-7.800
'0:06.356',-7.900
'0:06.357',-7.700
'0:06.358',-7.100
'0:06.359',-6.200
'0:06.360',-5.300
'0:06.361',-4.800
'0:06.362',-4.800
'0:06.363',-5.100
'0:06.364',-5.500
'0:06.365',-5.700
'0:06.366',-5.300
'0:06.367',-4.500
'0:06.368',-3.500
'0:06.369',-2.500
'0:06.370',-1.900
'0:06.371',-1.700
'0:06.372',-2.000
'0:06.373',-2.400
'0:06.374',-2.900
'0:06.375',-3.200
'0:06.376',-3.100
'0:06.377',-2.900
'0:06.378',-2.600
'0:06.379',-2.500
'0:06.380',-2.300
'0:06.381',-2.000
'0:06.382',-1.300
'0:06.383',-0.200
'0:06.384',0.700
'0:06.385',1.100
'0:06.386',0.800
'0:06.387',-0.300
'0:06.388',-1.400
'0:06.389',-2.000
'0:06.390',-1.800
'0:06.391',-0.900
'0:06.392',0.100
'0:06.393',0.700
'0:06.394',0.800
'0:06.395',0.500
'0:06.396',0.100
'0:06.397',-0.100
'0:06.398',-0.100
'0:06.399',0.000
'0:06.400',0.100
'0:06.401',0.200
'0:06.402',0.600
'0:06.403',1.100
'0:06.404',1.600
'0:06.405',1.800
'0:06.406',1.500
'0:06.407',0.900
'0:06.408',0.300
'0:06.409',-0.100
'0:06.410',0.100
'0:06.411',0.800
'0:06.412',1.600
'0:06.413',2.300
'0:06.414',2.800
'0:06.415',3.000
'0:06.416',3.200
'0:06.417',3.500
'0:06.418',4.000
'0:06.419',4.800
'0:06.420',5.500
'0:06.421',6.200
'0:06.422',6.400
'0:06.423',6.300
'0:06.424',5.800
'0:06.425',5.100
'0:06.426',4.300
'0:06.427',3.700
'0:06.428',3.200
'0:06.429',2.900
'0:06.430',2.600
'0:06.431',2.300
'0:06.432',1.700
'0:06.433',1.000
'0:06.434',0.100
'0:06.435',-0.800
'0:06.436',-1.400
'0:06.437',-1.700
'0:06.438',-1.600
'0:06.439',-1.400
'0:06.440',-1.300
'0:06.441',-1.300
'0:06.442',-1.400
'0:06.443',-1.500
'0:06.444',-1.500
'0:06.445',-1.100
'0:06.446',-0.400
'0:06.447',0.500
'0:06.448',1.500
'0:06.449',2.400
'0:06.450',3.100
'0:06.451',3.500
'0:06.452',3.700
'0:06.453',3.800
'0:06.454',4.000
'0:06.455',4.500
'0:06.456',5.300
'0:06.457',6.100
'0:06.458',6.700
'0:06.459',6.900
'0:06.460',6.500
'0:06.461',6.000
'0:06.462',5.500
'0:06.463',5.300
'0:06.464',5.300
'0:06.465',5.200
'0:06.466',5.000
'0:06.467',4.700
'0:06.468',4.300
'0:06.469',4.100
'0:06.470',4.200
'0:06.471',4.400
'0:06.472',4.600
'0:06.473',4.500
'0:06.474',4.200
'0:06.475',3.900
'0:06.476',3.800
'0:06.477',3.800
'0:06.478',3.900
'0:06.479',3.800
'0:06.480',3.400
'0:06.481',3.100
'0:06.482',3.100
'0:06.483',3.600
'0:06.484',4.500
'0:06.485',5.400
'0:06.486',6.000
'0:06.487',6.000
'0:06.488',5.800
'0:06.489',5.700
'0:06.490',5.800
'0:06.491',6.300
'0:06.492',6.800
'0:06.493',7.100
'0:06.494',7.100
'0:06.495',7.100
'0:06.496',7.100
'0:06.497',7.300
'0:06.498',7.500
'0:06.499',7.600
'0:06.500',7.500
'0:06.501',7.200
'0:06.502',7.000
'0:06.503',7.100
'0:06.504',7.500
'0:06.505',7.900
'0:06.506',8.100
'0:06.507',7.900
'0:06.508',7.600
'0:06.509',7.500
'0:06.510',7.800
'0:06.511',8.600
'0:06.512',9.700
'0:06.513',11.000
'0:06.514',12.000
'0:06.515',12.600
'0:06.516',13.000
'0:06.517',13.100
'0:06.518',13.200
'0:06.519',13.200
'0:06.520',13.200
'0:06.521',13.100
'0:06.522',12.700
'0:06.523',12.000
'0:06.524',11.300
'0:06.525',10.700
'0:06.526',10.400
'0:06.527',10.400
'0:06.528',10.400
'0:06.529',10.400
'0:06.530',10.200
'0:06.531',9.900
'0:06.532',9.700
'0:06.533',9.800
'0:06.534',10.200
'0:06.535',10.700
'0:06.536',11.100
'0:06.537',11.400
'0:06.538',11.500
'0:06.539',11.500
'0:06.540',11.300
'0:06.541',11.100
'0:06.542',10.700
'0:06.543',10.300
'0:06.544',10.000
'0:06.545',9.900
'0:06.546',10.100
'0:06.547',10.500
'0:06.548',10.700
'0:06.549',10.600
'0:06.550',10.200
'0:06.551',9.800
'0:06.552',9.500
'0:06.553',9.400
'0:06.554',9.400
'0:06.555',9.200
'0:06.556',8.600
'0:06.557',7.700
'0:06.558',7.100
'0:06.559',6.900
'0:06.560',7.300
'0:06.561',7.900
'0:06.562',8.400
'0:06.563',8.600
'0:06.564',8.300
'0:06.565',7.800
'0:06.566',7.200
'0:06.567',6.700
'0:06.568',6.200
'0:06.569',5.600
'0:06.570',5.100
'0:06.571',4.500
'0:06.572',4.000
'0:06.573',3.500
'0:06.574',3.200
'0:06.575',3.000
'0:06.576',2.700
'0:06.577',2.500
'0:06.578',2.300
'0:06.579',2.200
'0:06.580',2.200
'0:06.581',2.300
'0:06.582',2.500
'0:06.583',2.700
'0:06.584',2.600
'0:06.585',2.300
'0:06.586',1.600
'0:06.587',0.700
'0:06.588',-0.100
'0:06.589',-0.800
'0:06.590',-1.300
'0:06.591',-1.700
'0:06.592',-1.900
'0:06.593',-1.800
'0:06.594',-1.400
'0:06.595',-0.700
'0:06.596',0.100
'0:06.597',0.600
'0:06.598',1.000
'0:06.599',1.400
'0:06.600',2.000
'0:06.601',2.700
'0:06.602',3.300
'0:06.603',3.400
'0:06.604',2.900
'0:06.605',1.900
'0:06.606',1.100
'0:06.607',0.600
'0:06.608',0.600
'0:06.609',0.800
'0:06.610',0.500
'0:06.611',-0.200
'0:06.612',-1.400
'0:06.613',-2.500
'0:06.614',-3.200
'0:06.615',-3.600
'0:06.616',-4.000
'0:06.617',-4.700
'0:06.618',-5.600
'0:06.619',-6.500
'0:06.620',-6.900
'0:06.621',-6.600
'0:06.622',-6.000
'0:06.623',-5.400
'0:06.624',-5.300
'0:06.625',-5.700
'0:06.626',-6.400
'0:06.627',-6.800
'0:06.628',-6.700
'0:06.629',-6.100
'0:06.630',-5.300
'0:06.631',-4.700
'0:06.632',-4.700
'0:06.633',-5.000
'0:06.634',-5.500
'0:06.635',-5.700
'0:06.636',-5.500
'0:06.637',-4.900
'0:06.638',-4.500
'0:06.639',-4.400
'0:06.640',-4.700
'0:06.641',-5.200
'0:06.642',-5.500
'0:06.643',-5.100
'0:06.644',-4.100
'0:06.645',-2.800
'0:06.646',-1.800
'0:06.647',-1.200
'0:06.648',-1.300
'0:06.649',-1.700
'0:06.650',-2.100
'0:06.651',-2.200
'0:06.652',-2.200
'0:06.653',-2.000
'0:06.654',-1.900
'0:06.655',-1.900
'0:06.656',-1.800
'0:06.657',-1.600
'0:06.658',-1.300
'0:06.659',-1.000
'0:06.660',-0.800
'0:06.661',-0.900
'0:06.662',-1.300
'0:06.663',-1.800
'0:06.664',-2.200
'0:06.665',-2.400
'0:06.666',-2.600
'0:06.667',-2.800
'0:06.668',-3.000
'0:06.669',-3.300
'0:06.670',-3.400
'0:06.671',-3.000
'0:06.672',-2.100
'0:06.673',-1.000
'0:06.674',-0.300
'0:06.675',-0.200
'0:06.676',-0.900
'0:06.677',-1.800
'0:06.678',-2.300
'0:06.679',-1.900
'0:06.680',-1.000
'0:06.681',0.100
'0:06.682',0.700
'0:06.683',0.500
'0:06.684',-0.200
'0:06.685',-0.600
'0:06.686',-0.400
'0:06.687',0.800
'0:06.688',2.300
'0:06.689',3.700
'0:06.690',4.400
'0:06.691',4.400
'0:06.692',3.900
'0:06.693',3.200
'0:06.694',2.700
'0:06.695',2.200
'0:06.696',1.500
'0:06.697',0.400
'0:06.698',-1.000
'0:06.699',-2.300
'0:06.700',-3.000
'0:06.701',-3.000
'0:06.702',-2.300
'0:06.703',-1.200
'0:06.704',-0.500
'0:06.705',-0.500
'0:06.706',-1.200
'0:06.707',-2.400
'0:06.708',-3.600
'0:06.709',-4.500
'0:06.710',-4.900
'0:06.711',-5.100
'0:06.712',-5.400
'0:06.713',-5.900
'0:06.714',-6.400
'0:06.715',-6.600
'0:06.716',-5.900
'0:06.717',-4.500
'0:06.718',-2.700
'0:06.719',-1.000
'0:06.720',0.300
'0:06.721',1.100
'0:06.722',2.000
'0:06.723',4.100
'0:06.724',8.000
'0:06.725',13.700
'0:06.726',20.600
