'Elapsed time','Abdomen_3'
'0:00.000',22.100
'0:00.001',21.800
'0:00.002',21.300
'0:00.003',20.300
'0:00.004',18.600
'0:00.005',16.000
'0:00.006',12.700
'0:00.007',9.000
'0:00.008',5.400
'0:00.009',2.300
'0:00.010',0.000
'0:00.011',-1.600
'0:00.012',-2.500
'0:00.013',-2.900
'0:00.014',-2.700
'0:00.015',-1.900
'0:00.016',-0.700
'0:00.017',0.700
'0:00.018',1.600
'0:00.019',1.500
'0:00.020',0.200
'0:00.021',-2.100
'0:00.022',-4.700
'0:00.023',-6.900
'0:00.024',-8.400
'0:00.025',-9.300
'0:00.026',-9.900
'0:00.027',-10.600
'0:00.028',-11.300
'0:00.029',-11.900
'0:00.030',-12.200
'0:00.031',-11.900
'0:00.032',-11.300
'0:00.033',-10.600
'0:00.034',-10.300
'0:00.035',-10.500
'0:00.036',-11.400
'0:00.037',-12.800
'0:00.038',-14.300
'0:00.039',-15.500
'0:00.040',-16.000
'0:00.041',-15.500
'0:00.042',-14.100
'0:00.043',-12.200
'0:00.044',-10.300
'0:00.045',-8.900
'0:00.046',-8.300
'0:00.047',-8.300
'0:00.048',-8.600
'0:00.049',-8.800
'0:00.050',-8.600
'0:00.051',-8.000
'0:00.052',-7.100
'0:00.053',-5.900
'0:00.054',-4.700
'0:00.055',-3.300
'0:00.056',-2.100
'0:00.057',-1.000
'0:00.058',-0.200
'0:00.059',0.300
'0:00.060',0.500
'0:00.061',0.600
'0:00.062',0.700
'0:00.063',1.000
'0:00.064',1.400
'0:00.065',2.000
'0:00.066',2.700
'0:00.067',3.200
'0:00.068',3.500
'0:00.069',3.400
'0:00.070',3.000
'0:00.071',2.200
'0:00.072',1.400
'0:00.073',0.600
'0:00.074',0.100
'0:00.075',-0.300
'0:00.076',-0.500
'0:00.077',-0.500
'0:00.078',-0.400
'0:00.079',-0.100
'0:00.080',0.300
'0:00.081',0.900
'0:00.082',1.400
'0:00.083',1.600
'0:00.084',1.400
'0:00.085',1.000
'0:00.086',0.500
'0:00.087',0.200
'0:00.088',0.300
'0:00.089',0.700
'0:00.090',1.300
'0:00.091',1.700
'0:00.092',1.800
'0:00.093',1.400
'0:00.094',0.800
'0:00.095',0.300
'0:00.096',-0.100
'0:00.097',-0.200
'0:00.098',0.000
'0:00.099',0.200
'0:00.100',0.500
'0:00.101',0.900
'0:00.102',1.400
'0:00.103',2.000
'0:00.104',2.700
'0:00.105',3.200
'0:00.106',3.500
'0:00.107',3.300
'0:00.108',2.800
'0:00.109',2.200
'0:00.110',1.500
'0:00.111',1.100
'0:00.112',0.800
'0:00.113',0.800
'0:00.114',0.800
'0:00.115',0.800
'0:00.116',0.800
'0:00.117',0.800
'0:00.118',1.000
'0:00.119',1.200
'0:00.120',1.600
'0:00.121',2.100
'0:00.122',2.600
'0:00.123',3.000
'0:00.124',3.200
'0:00.125',3.200
'0:00.126',3.000
'0:00.127',2.700
'0:00.128',2.400
'0:00.129',2.500
'0:00.130',2.800
'0:00.131',3.400
'0:00.132',4.000
'0:00.133',4.200
'0:00.134',3.900
'0:00.135',3.400
'0:00.136',2.900
'0:00.137',2.800
'0:00.138',3.200
'0:00.139',4.000
'0:00.140',4.900
'0:00.141',5.300
'0:00.142',5.000
'0:00.143',4.000
'0:00.144',2.900
'0:00.145',1.800
'0:00.146',1.300
'0:00.147',1.100
'0:00.148',1.200
'0:00.149',1.300
'0:00.150',1.300
'0:00.151',1.200
'0:00.152',1.300
'0:00.153',1.400
'0:00.154',1.600
'0:00.155',1.500
'0:00.156',1.100
'0:00.157',0.500
'0:00.158',0.000
'0:00.159',-0.200
'0:00.160',-0.100
'0:00.161',0.100
'0:00.162',0.200
'0:00.163',0.300
'0:00.164',0.500
'0:00.165',1.100
'0:00.166',2.400
'0:00.167',4.000
'0:00.168',5.600
'0:00.169',6.800
'0:00.170',7.500
'0:00.171',7.900
'0:00.172',8.300
'0:00.173',9.100
'0:00.174',10.500
'0:00.175',12.600
'0:00.176',15.200
'0:00.177',18.200
'0:00.178',21.200
'0:00.179',23.700
'0:00.180',25.000
'0:00.181',24.800
'0:00.182',23.000
'0:00.183',20.000
'0:00.184',16.600
'0:00.185',13.400
'0:00.186',10.700
'0:00.187',8.300
'0:00.188',5.800
'0:00.189',3.000
'0:00.190',-0.100
'0:00.191',-3.000
'0:00.192',-5.100
'0:00.193',-6.000
'0:00.194',-5.800
'0:00.195',-4.800
'0:00.196',-3.600
'0:00.197',-2.600
'0:00.198',-2.000
'0:00.199',-1.600
'0:00.200',-1.200
'0:00.201',-0.300
'0:00.202',1.200
'0:00.203',3.200
'0:00.204',5.200
'0:00.205',6.800
'0:00.206',7.500
'0:00.207',7.400
'0:00.208',6.500
'0:00.209',5.300
'0:00.210',4.000
'0:00.211',3.100
'0:00.212',2.800
'0:00.213',2.900
'0:00.214',3.500
'0:00.215',4.200
'0:00.216',4.800
'0:00.217',5.100
'0:00.218',5.100
'0:00.219',4.800
'0:00.220',4.600
'0:00.221',4.700
'0:00.222',5.300
'0:00.223',6.300
'0:00.224',7.200
'0:00.225',7.900
'0:00.226',8.100
'0:00.227',8.100
'0:00.228',8.000
'0:00.229',8.000
'0:00.230',7.900
'0:00.231',7.900
'0:00.232',7.700
'0:00.233',7.400
'0:00.234',6.900
'0:00.235',6.400
'0:00.236',6.000
'0:00.237',5.900
'0:00.238',6.100
'0:00.239',6.400
'0:00.240',6.600
'0:00.241',6.600
'0:00.242',6.300
'0:00.243',5.500
'0:00.244',4.600
'0:00.245',3.800
'0:00.246',3.300
'0:00.247',3.300
'0:00.248',3.700
'0:00.249',4.300
'0:00.250',4.900
'0:00.251',5.300
'0:00.252',5.400
'0:00.253',5.300
'0:00.254',5.100
'0:00.255',4.800
'0:00.256',4.400
'0:00.257',4.000
'0:00.258',3.900
'0:00.259',4.300
'0:00.260',5.100
'0:00.261',6.400
'0:00.262',7.700
'0:00.263',8.700
'0:00.264',9.100
'0:00.265',9.000
'0:00.266',8.500
'0:00.267',8.200
'0:00.268',8.300
'0:00.269',8.800
'0:00.270',9.400
'0:00.271',9.800
'0:00.272',9.900
'0:00.273',9.500
'0:00.274',9.100
'0:00.275',8.800
'0:00.276',9.000
'0:00.277',9.600
'0:00.278',10.400
'0:00.279',11.400
'0:00.280',12.200
'0:00.281',12.800
'0:00.282',13.000
'0:00.283',12.800
'0:00.284',12.300
'0:00.285',11.500
'0:00.286',10.700
'0:00.287',9.800
'0:00.288',9.000
'0:00.289',8.200
'0:00.290',7.500
'0:00.291',7.000
'0:00.292',6.900
'0:00.293',7.300
'0:00.294',8.100
'0:00.295',9.100
'0:00.296',10.100
'0:00.297',10.800
'0:00.298',11.000
'0:00.299',10.800
'0:00.300',10.300
'0:00.301',9.600
'0:00.302',8.800
'0:00.303',7.900
'0:00.304',7.200
'0:00.305',6.700
'0:00.306',6.500
'0:00.307',6.600
'0:00.308',6.800
'0:00.309',7.100
'0:00.310',7.300
'0:00.311',7.300
'0:00.312',7.200
'0:00.313',7.100
'0:00.314',6.800
'0:00.315',6.400
'0:00.316',5.900
'0:00.317',5.200
'0:00.318',4.600
'0:00.319',4.200
'0:00.320',4.000
'0:00.321',4.000
'0:00.322',4.000
'0:00.323',3.900
'0:00.324',3.700
'0:00.325',3.400
'0:00.326',3.100
'0:00.327',2.900
'0:00.328',2.900
'0:00.329',3.200
'0:00.330',3.500
'0:00.331',4.100
'0:00.332',4.600
'0:00.333',5.100
'0:00.334',5.200
'0:00.335',5.100
'0:00.336',4.600
'0:00.337',4.000
'0:00.338',3.500
'0:00.339',3.300
'0:00.340',3.200
'0:00.341',3.100
'0:00.342',2.800
'0:00.343',2.300
'0:00.344',1.800
'0:00.345',1.500
'0:00.346',1.500
'0:00.347',1.700
'0:00.348',1.900
'0:00.349',1.700
'0:00.350',1.000
'0:00.351',-0.200
'0:00.352',-1.400
'0:00.353',-2.100
'0:00.354',-2.200
'0:00.355',-1.600
'0:00.356',-0.700
'0:00.357',0.000
'0:00.358',0.400
'0:00.359',0.200
'0:00.360',-0.200
'0:00.361',-0.500
'0:00.362',-0.500
'0:00.363',-0.100
'0:00.364',0.400
'0:00.365',1.000
'0:00.366',1.300
'0:00.367',1.500
'0:00.368',1.700
'0:00.369',1.800
'0:00.370',1.800
'0:00.371',1.700
'0:00.372',1.500
'0:00.373',1.200
'0:00.374',1.000
'0:00.375',0.800
'0:00.376',0.800
'0:00.377',0.800
'0:00.378',0.900
'0:00.379',1.200
'0:00.380',1.800
'0:00.381',2.500
'0:00.382',3.100
'0:00.383',3.100
'0:00.384',2.500
'0:00.385',1.300
'0:00.386',-0.100
'0:00.387',-1.200
'0:00.388',-1.600
'0:00.389',-1.200
'0:00.390',-0.400
'0:00.391',0.600
'0:00.392',1.400
'0:00.393',1.800
'0:00.394',1.700
'0:00.395',1.200
'0:00.396',0.500
'0:00.397',-0.400
'0:00.398',-1.200
'0:00.399',-1.400
'0:00.400',-0.900
'0:00.401',0.000
'0:00.402',1.200
'0:00.403',2.000
'0:00.404',2.000
'0:00.405',1.500
'0:00.406',0.800
'0:00.407',0.300
'0:00.408',0.400
'0:00.409',0.900
'0:00.410',1.500
'0:00.411',1.800
'0:00.412',1.600
'0:00.413',1.100
'0:00.414',0.800
'0:00.415',0.900
'0:00.416',1.300
'0:00.417',1.800
'0:00.418',2.000
'0:00.419',1.900
'0:00.420',1.400
'0:00.421',0.800
'0:00.422',0.500
'0:00.423',0.600
'0:00.424',1.000
'0:00.425',1.600
'0:00.426',2.100
'0:00.427',2.300
'0:00.428',2.200
'0:00.429',1.800
'0:00.430',1.100
'0:00.431',0.300
'0:00.432',-0.500
'0:00.433',-1.100
'0:00.434',-1.700
'0:00.435',-1.900
'0:00.436',-1.900
'0:00.437',-1.600
'0:00.438',-0.900
'0:00.439',0.100
'0:00.440',1.200
'0:00.441',2.300
'0:00.442',3.100
'0:00.443',3.500
'0:00.444',3.400
'0:00.445',3.100
'0:00.446',2.600
'0:00.447',2.100
'0:00.448',1.800
'0:00.449',1.700
'0:00.450',1.800
'0:00.451',2.100
'0:00.452',2.600
'0:00.453',3.300
'0:00.454',4.200
'0:00.455',5.000
'0:00.456',5.500
'0:00.457',5.300
'0:00.458',4.400
'0:00.459',3.100
'0:00.460',1.800
'0:00.461',1.100
'0:00.462',1.000
'0:00.463',1.300
'0:00.464',1.500
'0:00.465',1.200
'0:00.466',0.300
'0:00.467',-0.800
'0:00.468',-1.700
'0:00.469',-2.000
'0:00.470',-1.900
'0:00.471',-1.500
'0:00.472',-1.300
'0:00.473',-1.500
'0:00.474',-2.100
'0:00.475',-3.000
'0:00.476',-3.900
'0:00.477',-4.700
'0:00.478',-5.300
'0:00.479',-5.500
'0:00.480',-5.400
'0:00.481',-4.800
'0:00.482',-3.900
'0:00.483',-3.000
'0:00.484',-2.100
'0:00.485',-1.400
'0:00.486',-1.000
'0:00.487',-0.900
'0:00.488',-1.100
'0:00.489',-1.600
'0:00.490',-2.600
'0:00.491',-3.700
'0:00.492',-4.700
'0:00.493',-5.000
'0:00.494',-4.600
'0:00.495',-3.500
'0:00.496',-2.400
'0:00.497',-1.600
'0:00.498',-1.500
'0:00.499',-1.900
'0:00.500',-2.300
'0:00.501',-2.600
'0:00.502',-2.700
'0:00.503',-2.800
'0:00.504',-3.200
'0:00.505',-3.700
'0:00.506',-4.200
'0:00.507',-4.200
'0:00.508',-3.700
'0:00.509',-2.700
'0:00.510',-1.900
'0:00.511',-1.600
'0:00.512',-1.800
'0:00.513',-2.400
'0:00.514',-2.800
'0:00.515',-2.700
'0:00.516',-2.100
'0:00.517',-1.400
'0:00.518',-1.000
'0:00.519',-1.200
'0:00.520',-2.000
'0:00.521',-3.200
'0:00.522',-4.700
'0:00.523',-6.100
'0:00.524',-7.300
'0:00.525',-8.200
'0:00.526',-8.400
'0:00.527',-8.000
'0:00.528',-7.300
'0:00.529',-6.400
'0:00.530',-5.800
'0:00.531',-5.600
'0:00.532',-5.500
'0:00.533',-5.400
'0:00.534',-5.100
'0:00.535',-4.500
'0:00.536',-4.000
'0:00.537',-3.900
'0:00.538',-4.100
'0:00.539',-4.500
'0:00.540',-4.700
'0:00.541',-4.400
'0:00.542',-3.700
'0:00.543',-2.900
'0:00.544',-2.200
'0:00.545',-1.800
'0:00.546',-1.500
'0:00.547',-1.100
'0:00.548',-0.500
'0:00.549',0.000
'0:00.550',0.100
'0:00.551',-0.400
'0:00.552',-1.500
'0:00.553',-2.700
'0:00.554',-3.400
'0:00.555',-3.500
'0:00.556',-3.100
'0:00.557',-2.600
'0:00.558',-2.400
'0:00.559',-2.700
'0:00.560',-3.100
'0:00.561',-3.400
'0:00.562',-3.200
'0:00.563',-2.800
'0:00.564',-2.500
'0:00.565',-2.600
'0:00.566',-3.200
'0:00.567',-4.100
'0:00.568',-5.000
'0:00.569',-5.500
'0:00.570',-5.700
'0:00.571',-5.600
'0:00.572',-5.500
'0:00.573',-5.600
'0:00.574',-5.800
'0:00.575',-6.300
'0:00.576',-6.900
'0:00.577',-7.700
'0:00.578',-8.400
'0:00.579',-9.000
'0:00.580',-9.200
'0:00.581',-8.800
'0:00.582',-8.000
'0:00.583',-6.900
'0:00.584',-6.100
'0:00.585',-5.700
'0:00.586',-5.900
'0:00.587',-6.400
'0:00.588',-7.100
'0:00.589',-7.500
'0:00.590',-7.400
'0:00.591',-7.000
'0:00.592',-6.300
'0:00.593',-5.600
'0:00.594',-5.200
'0:00.595',-5.100
'0:00.596',-5.400
'0:00.597',-5.800
'0:00.598',-6.000
'0:00.599',-5.900
'0:00.600',-5.300
'0:00.601',-4.600
'0:00.602',-3.900
'0:00.603',-3.500
'0:00.604',-3.500
'0:00.605',-3.800
'0:00.606',-4.200
'0:00.607',-4.500
'0:00.608',-4.600
'0:00.609',-4.400
'0:00.610',-4.300
'0:00.611',-4.100
'0:00.612',-4.100
'0:00.613',-4.000
'0:00.614',-3.900
'0:00.615',-3.600
'0:00.616',-3.300
'0:00.617',-2.900
'0:00.618',-2.300
'0:00.619',-1.700
'0:00.620',-1.200
'0:00.621',-0.900
'0:00.622',-1.000
'0:00.623',-1.600
'0:00.624',-2.300
'0:00.625',-3.000
'0:00.626',-3.200
'0:00.627',-2.900
'0:00.628',-2.600
'0:00.629',-2.700
'0:00.630',-3.400
'0:00.631',-4.900
'0:00.632',-6.700
'0:00.633',-8.200
'0:00.634',-8.700
'0:00.635',-8.300
'0:00.636',-7.000
'0:00.637',-5.500
'0:00.638',-4.400
'0:00.639',-3.700
'0:00.640',-3.400
'0:00.641',-2.700
'0:00.642',-0.900
'0:00.643',2.400
'0:00.644',6.900
'0:00.645',11.900
'0:00.646',16.200
'0:00.647',18.900
'0:00.648',19.300
'0:00.649',17.800
'0:00.650',15.100
'0:00.651',12.000
'0:00.652',9.200
'0:00.653',6.900
'0:00.654',4.800
'0:00.655',2.600
'0:00.656',0.000
'0:00.657',-2.800
'0:00.658',-5.800
'0:00.659',-8.500
'0:00.660',-10.700
'0:00.661',-12.000
'0:00.662',-12.200
'0:00.663',-11.400
'0:00.664',-9.600
'0:00.665',-7.100
'0:00.666',-4.400
'0:00.667',-1.900
'0:00.668',0.100
'0:00.669',1.600
'0:00.670',2.700
'0:00.671',3.500
'0:00.672',3.800
'0:00.673',3.800
'0:00.674',3.400
'0:00.675',2.800
'0:00.676',2.500
'0:00.677',3.000
'0:00.678',4.600
'0:00.679',7.000
'0:00.680',9.900
'0:00.681',12.500
'0:00.682',14.600
'0:00.683',16.100
'0:00.684',17.200
'0:00.685',18.100
'0:00.686',19.000
'0:00.687',19.800
'0:00.688',20.400
'0:00.689',20.700
'0:00.690',20.800
'0:00.691',20.900
'0:00.692',21.100
'0:00.693',21.500
'0:00.694',21.900
'0:00.695',21.900
'0:00.696',21.500
'0:00.697',20.400
'0:00.698',19.000
'0:00.699',17.200
'0:00.700',15.300
'0:00.701',13.200
'0:00.702',10.900
'0:00.703',8.000
'0:00.704',4.800
'0:00.705',1.500
'0:00.706',-1.600
'0:00.707',-3.800
'0:00.708',-4.800
'0:00.709',-4.600
'0:00.710',-3.500
'0:00.711',-2.100
'0:00.712',-1.200
'0:00.713',-1.300
'0:00.714',-2.600
'0:00.715',-4.700
'0:00.716',-7.200
'0:00.717',-9.600
'0:00.718',-11.800
'0:00.719',-13.700
'0:00.720',-15.500
'0:00.721',-17.200
'0:00.722',-18.700
'0:00.723',-19.700
'0:00.724',-20.000
'0:00.725',-19.800
'0:00.726',-19.200
'0:00.727',-18.700
'0:00.728',-18.600
'0:00.729',-19.000
'0:00.730',-19.800
'0:00.731',-20.700
'0:00.732',-21.400
'0:00.733',-21.900
'0:00.734',-21.900
'0:00.735',-21.700
'0:00.736',-21.300
'0:00.737',-20.700
'0:00.738',-20.100
'0:00.739',-19.200
'0:00.740',-18.100
'0:00.741',-16.500
'0:00.742',-14.600
'0:00.743',-12.600
'0:00.744',-10.800
'0:00.745',-9.400
'0:00.746',-8.500
'0:00.747',-7.800
'0:00.748',-7.100
'0:00.749',-6.200
'0:00.750',-5.200
'0:00.751',-4.300
'0:00.752',-3.600
'0:00.753',-3.000
'0:00.754',-2.300
'0:00.755',-1.400
'0:00.756',-0.200
'0:00.757',0.900
'0:00.758',1.300
'0:00.759',0.700
'0:00.760',-0.900
'0:00.761',-3.000
'0:00.762',-5.100
'0:00.763',-6.600
'0:00.764',-7.200
'0:00.765',-7.100
'0:00.766',-6.500
'0:00.767',-5.600
'0:00.768',-4.600
'0:00.769',-3.700
'0:00.770',-3.000
'0:00.771',-2.700
'0:00.772',-2.600
'0:00.773',-2.700
'0:00.774',-2.700
'0:00.775',-2.400
'0:00.776',-1.800
'0:00.777',-0.700
'0:00.778',0.400
'0:00.779',1.400
'0:00.780',2.100
'0:00.781',2.600
'0:00.782',2.900
'0:00.783',2.900
'0:00.784',2.700
'0:00.785',2.100
'0:00.786',1.200
'0:00.787',0.000
'0:00.788',-1.000
'0:00.789',-1.600
'0:00.790',-1.700
'0:00.791',-1.500
'0:00.792',-1.200
'0:00.793',-0.800
'0:00.794',-0.600
'0:00.795',-0.300
'0:00.796',0.100
'0:00.797',0.400
'0:00.798',0.800
'0:00.799',1.000
'0:00.800',1.000
'0:00.801',1.000
'0:00.802',0.800
'0:00.803',0.500
'0:00.804',0.100
'0:00.805',-0.400
'0:00.806',-1.100
'0:00.807',-1.700
'0:00.808',-2.000
'0:00.809',-1.900
'0:00.810',-1.400
'0:00.811',-0.700
'0:00.812',-0.100
'0:00.813',0.000
'0:00.814',-0.400
'0:00.815',-1.000
'0:00.816',-1.600
'0:00.817',-1.900
'0:00.818',-1.800
'0:00.819',-1.200
'0:00.820',-0.500
'0:00.821',0.100
'0:00.822',0.400
'0:00.823',0.500
'0:00.824',0.400
'0:00.825',0.400
'0:00.826',0.400
'0:00.827',0.500
'0:00.828',0.600
'0:00.829',0.600
'0:00.830',0.500
'0:00.831',0.200
'0:00.832',-0.300
'0:00.833',-1.100
'0:00.834',-1.900
'0:00.835',-2.400
'0:00.836',-2.500
'0:00.837',-2.000
'0:00.838',-1.200
'0:00.839',-0.600
'0:00.840',-0.500
'0:00.841',-0.900
'0:00.842',-1.500
'0:00.843',-2.000
'0:00.844',-2.000
'0:00.845',-1.800
'0:00.846',-1.800
'0:00.847',-2.100
'0:00.848',-2.700
'0:00.849',-3.300
'0:00.850',-3.200
'0:00.851',-2.200
'0:00.852',-0.800
'0:00.853',0.400
'0:00.854',0.900
'0:00.855',0.400
'0:00.856',-0.700
'0:00.857',-1.600
'0:00.858',-1.900
'0:00.859',-1.400
'0:00.860',-0.500
'0:00.861',0.200
'0:00.862',0.400
'0:00.863',0.200
'0:00.864',-0.300
'0:00.865',-0.600
'0:00.866',-0.800
'0:00.867',-0.900
'0:00.868',-1.100
'0:00.869',-1.500
'0:00.870',-1.700
'0:00.871',-1.400
'0:00.872',-0.600
'0:00.873',0.800
'0:00.874',2.300
'0:00.875',3.400
'0:00.876',3.900
'0:00.877',3.900
'0:00.878',3.700
'0:00.879',3.600
'0:00.880',3.600
'0:00.881',3.500
'0:00.882',2.900
'0:00.883',2.000
'0:00.884',0.800
'0:00.885',0.100
'0:00.886',0.200
'0:00.887',1.400
'0:00.888',3.300
'0:00.889',5.500
'0:00.890',7.100
'0:00.891',7.900
'0:00.892',7.700
'0:00.893',7.000
'0:00.894',6.100
'0:00.895',5.100
'0:00.896',4.100
'0:00.897',2.800
'0:00.898',1.400
'0:00.899',0.000
'0:00.900',-0.900
'0:00.901',-1.200
'0:00.902',-0.700
'0:00.903',0.100
'0:00.904',1.100
'0:00.905',1.900
'0:00.906',2.600
'0:00.907',3.300
'0:00.908',3.900
'0:00.909',4.200
'0:00.910',3.800
'0:00.911',2.900
'0:00.912',1.500
'0:00.913',0.400
'0:00.914',0.100
'0:00.915',0.900
'0:00.916',2.400
'0:00.917',4.000
'0:00.918',5.200
'0:00.919',5.700
'0:00.920',5.500
'0:00.921',5.100
'0:00.922',4.800
'0:00.923',4.700
'0:00.924',4.500
'0:00.925',3.900
'0:00.926',3.000
'0:00.927',1.800
'0:00.928',0.700
'0:00.929',0.300
'0:00.930',0.500
'0:00.931',1.300
'0:00.932',2.000
'0:00.933',2.200
'0:00.934',1.700
'0:00.935',0.800
'0:00.936',-0.100
'0:00.937',-0.500
'0:00.938',-0.300
'0:00.939',0.300
'0:00.940',1.200
'0:00.941',1.700
'0:00.942',1.900
'0:00.943',1.900
'0:00.944',1.700
'0:00.945',1.800
'0:00.946',2.000
'0:00.947',2.300
'0:00.948',2.400
'0:00.949',2.300
'0:00.950',1.900
'0:00.951',1.700
'0:00.952',1.800
'0:00.953',2.500
'0:00.954',3.400
'0:00.955',4.300
'0:00.956',4.800
'0:00.957',4.900
'0:00.958',4.700
'0:00.959',4.600
'0:00.960',4.500
'0:00.961',4.600
'0:00.962',4.600
'0:00.963',4.400
'0:00.964',4.100
'0:00.965',3.800
'0:00.966',3.700
'0:00.967',3.700
'0:00.968',3.900
'0:00.969',4.000
'0:00.970',4.000
'0:00.971',4.000
'0:00.972',4.100
'0:00.973',4.500
'0:00.974',5.000
'0:00.975',5.400
'0:00.976',5.500
'0:00.977',5.500
'0:00.978',5.500
'0:00.979',5.800
'0:00.980',6.200
'0:00.981',6.800
'0:00.982',7.200
'0:00.983',7.100
'0:00.984',6.500
'0:00.985',5.500
'0:00.986',4.400
'0:00.987',3.700
'0:00.988',3.400
'0:00.989',3.800
'0:00.990',4.500
'0:00.991',5.200
'0:00.992',5.700
'0:00.993',5.500
'0:00.994',4.600
'0:00.995',3.200
'0:00.996',1.800
'0:00.997',1.000
'0:00.998',1.100
'0:00.999',1.900
'0:01.000',3.300
'0:01.001',4.400
'0:01.002',5.000
'0:01.003',5.000
'0:01.004',4.700
'0:01.005',4.500
'0:01.006',4.800
'0:01.007',5.500
'0:01.008',6.300
'0:01.009',6.900
'0:01.010',6.800
'0:01.011',6.000
'0:01.012',4.700
'0:01.013',3.300
'0:01.014',2.000
'0:01.015',1.200
'0:01.016',0.900
'0:01.017',0.700
'0:01.018',0.600
'0:01.019',0.100
'0:01.020',-0.700
'0:01.021',-1.700
'0:01.022',-2.300
'0:01.023',-2.400
'0:01.024',-1.900
'0:01.025',-0.900
'0:01.026',0.200
'0:01.027',1.000
'0:01.028',1.300
'0:01.029',1.100
'0:01.030',0.600
'0:01.031',-0.100
'0:01.032',-0.900
'0:01.033',-1.700
'0:01.034',-2.500
'0:01.035',-3.200
'0:01.036',-3.600
'0:01.037',-3.700
'0:01.038',-3.500
'0:01.039',-2.800
'0:01.040',-1.900
'0:01.041',-1.000
'0:01.042',-0.200
'0:01.043',0.000
'0:01.044',-0.300
'0:01.045',-1.000
'0:01.046',-1.700
'0:01.047',-2.000
'0:01.048',-1.800
'0:01.049',-1.100
'0:01.050',-0.300
'0:01.051',0.100
'0:01.052',0.100
'0:01.053',-0.200
'0:01.054',-0.500
'0:01.055',-0.700
'0:01.056',-0.500
'0:01.057',-0.400
'0:01.058',-0.300
'0:01.059',-0.500
'0:01.060',-0.800
'0:01.061',-0.900
'0:01.062',-0.600
'0:01.063',0.000
'0:01.064',0.700
'0:01.065',1.100
'0:01.066',1.000
'0:01.067',0.400
'0:01.068',-0.200
'0:01.069',-0.400
'0:01.070',-0.100
'0:01.071',0.700
'0:01.072',1.700
'0:01.073',2.400
'0:01.074',2.400
'0:01.075',1.700
'0:01.076',0.700
'0:01.077',-0.300
'0:01.078',-0.900
'0:01.079',-1.100
'0:01.080',-0.900
'0:01.081',-0.700
'0:01.082',-0.500
'0:01.083',-0.500
'0:01.084',-0.300
'0:01.085',0.000
'0:01.086',0.300
'0:01.087',0.200
'0:01.088',-0.300
'0:01.089',-1.200
'0:01.090',-2.300
'0:01.091',-3.100
'0:01.092',-3.400
'0:01.093',-3.300
'0:01.094',-3.000
'0:01.095',-3.000
'0:01.096',-3.400
'0:01.097',-3.900
'0:01.098',-4.400
'0:01.099',-4.500
'0:01.100',-4.200
'0:01.101',-3.700
'0:01.102',-3.200
'0:01.103',-2.800
'0:01.104',-2.300
'0:01.105',-1.600
'0:01.106',-0.500
'0:01.107',1.100
'0:01.108',3.300
'0:01.109',6.200
'0:01.110',9.600
'0:01.111',13.400
'0:01.112',17.100
'0:01.113',20.000
'0:01.114',21.700
'0:01.115',21.700
'0:01.116',20.300
'0:01.117',17.800
'0:01.118',14.900
'0:01.119',11.900
'0:01.120',9.100
'0:01.121',6.500
'0:01.122',3.700
'0:01.123',0.600
'0:01.124',-2.800
'0:01.125',-6.500
'0:01.126',-9.900
'0:01.127',-12.500
'0:01.128',-13.700
'0:01.129',-13.300
'0:01.130',-11.700
'0:01.131',-9.300
'0:01.132',-6.900
'0:01.133',-4.900
'0:01.134',-3.500
'0:01.135',-2.700
'0:01.136',-2.300
'0:01.137',-2.200
'0:01.138',-2.500
'0:01.139',-2.900
'0:01.140',-3.400
'0:01.141',-3.600
'0:01.142',-3.500
'0:01.143',-3.100
'0:01.144',-2.600
'0:01.145',-2.500
'0:01.146',-2.700
'0:01.147',-3.300
'0:01.148',-3.800
'0:01.149',-4.000
'0:01.150',-3.900
'0:01.151',-3.600
'0:01.152',-3.400
'0:01.153',-3.500
'0:01.154',-3.700
'0:01.155',-3.900
'0:01.156',-4.000
'0:01.157',-3.900
'0:01.158',-3.600
'0:01.159',-3.100
'0:01.160',-2.600
'0:01.161',-2.100
'0:01.162',-1.800
'0:01.163',-1.600
'0:01.164',-1.500
'0:01.165',-1.500
'0:01.166',-1.500
'0:01.167',-1.800
'0:01.168',-2.300
'0:01.169',-3.000
'0:01.170',-3.900
'0:01.171',-4.700
'0:01.172',-5.200
'0:01.173',-5.400
'0:01.174',-5.200
'0:01.175',-4.900
'0:01.176',-4.700
'0:01.177',-4.600
'0:01.178',-4.600
'0:01.179',-4.800
'0:01.180',-5.200
'0:01.181',-5.800
'0:01.182',-6.500
'0:01.183',-7.100
'0:01.184',-7.300
'0:01.185',-6.800
'0:01.186',-5.700
'0:01.187',-4.500
'0:01.188',-3.400
'0:01.189',-3.000
'0:01.190',-3.200
'0:01.191',-3.700
'0:01.192',-4.100
'0:01.193',-4.200
'0:01.194',-3.700
'0:01.195',-2.800
'0:01.196',-1.800
'0:01.197',-1.000
'0:01.198',-0.400
'0:01.199',-0.300
'0:01.200',-0.500
'0:01.201',-0.900
'0:01.202',-1.500
'0:01.203',-2.100
'0:01.204',-2.400
'0:01.205',-2.500
'0:01.206',-2.200
'0:01.207',-1.800
'0:01.208',-1.400
'0:01.209',-1.100
'0:01.210',-1.100
'0:01.211',-1.200
'0:01.212',-1.300
'0:01.213',-1.200
'0:01.214',-0.700
'0:01.215',-0.100
'0:01.216',0.300
'0:01.217',0.300
'0:01.218',-0.500
'0:01.219',-1.800
'0:01.220',-3.200
'0:01.221',-4.400
'0:01.222',-5.000
'0:01.223',-5.100
'0:01.224',-4.900
'0:01.225',-4.900
'0:01.226',-5.000
'0:01.227',-5.100
'0:01.228',-5.100
'0:01.229',-4.600
'0:01.230',-3.900
'0:01.231',-3.000
'0:01.232',-2.400
'0:01.233',-2.100
'0:01.234',-2.000
'0:01.235',-1.800
'0:01.236',-1.400
'0:01.237',-0.700
'0:01.238',-0.100
'0:01.239',0.100
'0:01.240',-0.200
'0:01.241',-0.900
'0:01.242',-1.800
'0:01.243',-2.400
'0:01.244',-2.900
'0:01.245',-3.100
'0:01.246',-3.400
'0:01.247',-3.700
'0:01.248',-3.900
'0:01.249',-4.000
'0:01.250',-3.800
'0:01.251',-3.500
'0:01.252',-3.200
'0:01.253',-3.000
'0:01.254',-2.700
'0:01.255',-2.200
'0:01.256',-1.300
'0:01.257',-0.100
'0:01.258',1.000
'0:01.259',1.700
'0:01.260',1.700
'0:01.261',1.300
'0:01.262',0.700
'0:01.263',0.400
'0:01.264',0.500
'0:01.265',0.900
'0:01.266',1.300
'0:01.267',1.500
'0:01.268',1.500
'0:01.269',1.500
'0:01.270',1.400
'0:01.271',1.300
'0:01.272',0.900
'0:01.273',0.300
'0:01.274',-0.300
'0:01.275',-0.500
'0:01.276',0.100
'0:01.277',1.300
'0:01.278',2.900
'0:01.279',4.200
'0:01.280',4.700
'0:01.281',4.400
'0:01.282',3.600
'0:01.283',2.800
'0:01.284',2.200
'0:01.285',2.000
'0:01.286',2.300
'0:01.287',2.800
'0:01.288',3.500
'0:01.289',4.000
'0:01.290',4.400
'0:01.291',4.500
'0:01.292',4.200
'0:01.293',3.700
'0:01.294',3.100
'0:01.295',2.800
'0:01.296',2.700
'0:01.297',2.800
'0:01.298',3.000
'0:01.299',3.200
'0:01.300',3.300
'0:01.301',3.400
'0:01.302',3.400
'0:01.303',3.100
'0:01.304',2.600
'0:01.305',1.800
'0:01.306',0.900
'0:01.307',0.100
'0:01.308',-0.200
'0:01.309',-0.100
'0:01.310',0.300
'0:01.311',0.800
'0:01.312',1.100
'0:01.313',1.100
'0:01.314',0.700
'0:01.315',0.300
'0:01.316',0.000
'0:01.317',0.000
'0:01.318',0.600
'0:01.319',1.600
'0:01.320',2.900
'0:01.321',4.200
'0:01.322',5.100
'0:01.323',5.100
'0:01.324',4.400
'0:01.325',2.800
'0:01.326',0.800
'0:01.327',-1.200
'0:01.328',-3.000
'0:01.329',-4.200
'0:01.330',-4.600
'0:01.331',-4.300
'0:01.332',-3.600
'0:01.333',-2.800
'0:01.334',-2.500
'0:01.335',-2.600
'0:01.336',-3.000
'0:01.337',-3.300
'0:01.338',-3.100
'0:01.339',-2.400
'0:01.340',-1.300
'0:01.341',-0.500
'0:01.342',-0.400
'0:01.343',-1.300
'0:01.344',-2.900
'0:01.345',-4.700
'0:01.346',-6.100
'0:01.347',-6.400
'0:01.348',-5.600
'0:01.349',-4.000
'0:01.350',-2.200
'0:01.351',-0.700
'0:01.352',0.100
'0:01.353',0.200
'0:01.354',0.000
'0:01.355',-0.200
'0:01.356',0.000
'0:01.357',0.200
'0:01.358',0.200
'0:01.359',-0.400
'0:01.360',-1.500
'0:01.361',-2.900
'0:01.362',-4.100
'0:01.363',-4.700
'0:01.364',-4.700
'0:01.365',-4.700
'0:01.366',-4.900
'0:01.367',-5.700
'0:01.368',-6.700
'0:01.369',-7.400
'0:01.370',-7.300
'0:01.371',-6.400
'0:01.372',-4.900
'0:01.373',-3.600
'0:01.374',-3.000
'0:01.375',-3.200
'0:01.376',-4.100
'0:01.377',-5.200
'0:01.378',-6.200
'0:01.379',-6.800
'0:01.380',-7.200
'0:01.381',-7.300
'0:01.382',-7.200
'0:01.383',-6.800
'0:01.384',-6.100
'0:01.385',-5.000
'0:01.386',-4.000
'0:01.387',-3.200
'0:01.388',-2.800
'0:01.389',-2.800
'0:01.390',-2.900
'0:01.391',-2.900
'0:01.392',-2.800
'0:01.393',-2.600
'0:01.394',-2.400
'0:01.395',-2.200
'0:01.396',-1.900
'0:01.397',-1.400
'0:01.398',-0.700
'0:01.399',0.100
'0:01.400',0.700
'0:01.401',0.900
'0:01.402',0.800
'0:01.403',0.200
'0:01.404',-0.400
'0:01.405',-1.100
'0:01.406',-1.500
'0:01.407',-1.500
'0:01.408',-0.900
'0:01.409',0.100
'0:01.410',1.400
'0:01.411',2.800
'0:01.412',3.900
'0:01.413',4.900
'0:01.414',5.800
'0:01.415',7.100
'0:01.416',8.900
'0:01.417',11.200
'0:01.418',13.800
'0:01.419',16.200
'0:01.420',18.200
'0:01.421',19.800
'0:01.422',20.900
'0:01.423',21.800
'0:01.424',22.500
'0:01.425',22.800
'0:01.426',22.800
'0:01.427',22.500
'0:01.428',21.900
'0:01.429',21.500
'0:01.430',21.300
'0:01.431',21.300
'0:01.432',21.200
'0:01.433',20.900
'0:01.434',20.100
'0:01.435',18.900
'0:01.436',17.400
'0:01.437',15.800
'0:01.438',14.200
'0:01.439',12.200
'0:01.440',9.800
'0:01.441',6.700
'0:01.442',3.300
'0:01.443',-0.100
'0:01.444',-2.900
'0:01.445',-4.700
'0:01.446',-5.500
'0:01.447',-5.400
'0:01.448',-4.900
'0:01.449',-4.300
'0:01.450',-4.000
'0:01.451',-4.200
'0:01.452',-5.000
'0:01.453',-6.400
'0:01.454',-8.300
'0:01.455',-10.800
'0:01.456',-13.600
'0:01.457',-16.600
'0:01.458',-19.700
'0:01.459',-22.600
'0:01.460',-24.900
'0:01.461',-26.400
'0:01.462',-27.000
'0:01.463',-26.800
'0:01.464',-26.100
'0:01.465',-25.100
'0:01.466',-24.100
'0:01.467',-23.100
'0:01.468',-22.400
'0:01.469',-22.000
'0:01.470',-22.000
'0:01.471',-22.500
'0:01.472',-23.300
'0:01.473',-24.100
'0:01.474',-24.400
'0:01.475',-24.200
'0:01.476',-23.400
'0:01.477',-22.100
'0:01.478',-20.600
'0:01.479',-18.900
'0:01.480',-16.900
'0:01.481',-14.500
'0:01.482',-12.100
'0:01.483',-9.900
'0:01.484',-8.300
'0:01.485',-7.400
'0:01.486',-7.100
'0:01.487',-6.900
'0:01.488',-6.400
'0:01.489',-5.700
'0:01.490',-5.100
'0:01.491',-4.700
'0:01.492',-4.900
'0:01.493',-5.300
'0:01.494',-5.700
'0:01.495',-5.700
'0:01.496',-5.300
'0:01.497',-4.700
'0:01.498',-4.500
'0:01.499',-4.800
'0:01.500',-5.400
'0:01.501',-6.100
'0:01.502',-6.600
'0:01.503',-6.700
'0:01.504',-6.600
'0:01.505',-6.500
'0:01.506',-6.400
'0:01.507',-6.300
'0:01.508',-5.900
'0:01.509',-5.200
'0:01.510',-4.000
'0:01.511',-2.900
'0:01.512',-1.900
'0:01.513',-1.400
'0:01.514',-1.300
'0:01.515',-1.200
'0:01.516',-0.800
'0:01.517',-0.200
'0:01.518',0.600
'0:01.519',1.200
'0:01.520',1.400
'0:01.521',1.300
'0:01.522',0.900
'0:01.523',0.500
'0:01.524',0.400
'0:01.525',0.500
'0:01.526',0.700
'0:01.527',1.000
'0:01.528',1.400
'0:01.529',1.800
'0:01.530',2.400
'0:01.531',3.200
'0:01.532',3.800
'0:01.533',4.200
'0:01.534',4.300
'0:01.535',4.300
'0:01.536',4.100
'0:01.537',4.000
'0:01.538',3.700
'0:01.539',3.300
'0:01.540',2.600
'0:01.541',1.800
'0:01.542',1.200
'0:01.543',0.800
'0:01.544',0.700
'0:01.545',0.600
'0:01.546',0.500
'0:01.547',0.100
'0:01.548',-0.300
'0:01.549',-0.600
'0:01.550',-0.500
'0:01.551',-0.200
'0:01.552',0.200
'0:01.553',0.500
'0:01.554',0.600
'0:01.555',0.700
'0:01.556',0.800
'0:01.557',0.800
'0:01.558',0.700
'0:01.559',0.400
'0:01.560',-0.300
'0:01.561',-1.300
'0:01.562',-2.200
'0:01.563',-2.900
'0:01.564',-3.300
'0:01.565',-3.100
'0:01.566',-2.400
'0:01.567',-0.900
'0:01.568',1.000
'0:01.569',3.100
'0:01.570',4.800
'0:01.571',6.000
'0:01.572',6.800
'0:01.573',8.100
'0:01.574',10.500
'0:01.575',14.100
'0:01.576',18.500
'0:01.577',22.300
'0:01.578',24.400
'0:01.579',24.300
'0:01.580',22.600
'0:01.581',20.100
'0:01.582',18.000
'0:01.583',16.300
'0:01.584',14.800
'0:01.585',12.500
'0:01.586',9.000
'0:01.587',4.800
'0:01.588',0.600
'0:01.589',-2.500
'0:01.590',-4.000
'0:01.591',-4.100
'0:01.592',-3.600
'0:01.593',-3.300
'0:01.594',-3.600
'0:01.595',-4.200
'0:01.596',-4.700
'0:01.597',-4.600
'0:01.598',-3.700
'0:01.599',-2.100
'0:01.600',-0.200
'0:01.601',1.600
'0:01.602',2.900
'0:01.603',3.700
'0:01.604',4.100
'0:01.605',4.100
'0:01.606',3.800
'0:01.607',3.500
'0:01.608',3.400
'0:01.609',3.700
'0:01.610',4.300
'0:01.611',5.200
'0:01.612',5.900
'0:01.613',6.200
'0:01.614',6.000
'0:01.615',5.500
'0:01.616',5.000
'0:01.617',4.700
'0:01.618',4.700
'0:01.619',4.800
'0:01.620',4.700
'0:01.621',4.300
'0:01.622',3.800
'0:01.623',3.600
'0:01.624',4.000
'0:01.625',4.800
'0:01.626',6.000
'0:01.627',7.000
'0:01.628',7.700
'0:01.629',7.800
'0:01.630',7.400
'0:01.631',6.500
'0:01.632',5.300
'0:01.633',3.900
'0:01.634',2.800
'0:01.635',2.200
'0:01.636',2.200
'0:01.637',2.700
'0:01.638',3.500
'0:01.639',4.300
'0:01.640',5.000
'0:01.641',5.400
'0:01.642',5.900
'0:01.643',6.500
'0:01.644',7.200
'0:01.645',7.700
'0:01.646',7.800
'0:01.647',7.500
'0:01.648',6.900
'0:01.649',6.200
'0:01.650',5.700
'0:01.651',5.300
'0:01.652',4.900
'0:01.653',4.300
'0:01.654',3.600
'0:01.655',2.900
'0:01.656',2.400
'0:01.657',2.000
'0:01.658',1.800
'0:01.659',1.700
'0:01.660',1.600
'0:01.661',1.500
'0:01.662',1.400
'0:01.663',1.600
'0:01.664',2.000
'0:01.665',2.600
'0:01.666',3.400
'0:01.667',4.200
'0:01.668',4.700
'0:01.669',4.800
'0:01.670',4.400
'0:01.671',3.700
'0:01.672',3.100
'0:01.673',2.800
'0:01.674',3.000
'0:01.675',3.700
'0:01.676',4.600
'0:01.677',5.400
'0:01.678',6.000
'0:01.679',6.300
'0:01.680',6.300
'0:01.681',6.200
'0:01.682',5.900
'0:01.683',5.400
'0:01.684',5.000
'0:01.685',4.800
'0:01.686',4.900
'0:01.687',5.300
'0:01.688',5.500
'0:01.689',5.500
'0:01.690',5.100
'0:01.691',4.500
'0:01.692',3.900
'0:01.693',3.300
'0:01.694',2.800
'0:01.695',2.100
'0:01.696',1.400
'0:01.697',0.900
'0:01.698',0.800
'0:01.699',1.200
'0:01.700',2.000
'0:01.701',2.800
'0:01.702',3.300
'0:01.703',3.500
'0:01.704',3.700
'0:01.705',4.300
'0:01.706',5.500
'0:01.707',7.200
'0:01.708',8.600
'0:01.709',9.400
'0:01.710',9.300
'0:01.711',8.300
'0:01.712',7.100
'0:01.713',6.300
'0:01.714',6.200
'0:01.715',6.800
'0:01.716',7.600
'0:01.717',8.200
'0:01.718',8.300
'0:01.719',7.900
'0:01.720',7.300
'0:01.721',6.900
'0:01.722',6.800
'0:01.723',6.900
'0:01.724',6.900
'0:01.725',6.600
'0:01.726',5.900
'0:01.727',5.200
'0:01.728',4.800
'0:01.729',5.000
'0:01.730',5.700
'0:01.731',6.800
'0:01.732',7.800
'0:01.733',8.700
'0:01.734',9.500
'0:01.735',10.200
'0:01.736',10.800
'0:01.737',11.300
'0:01.738',11.300
'0:01.739',10.600
'0:01.740',9.200
'0:01.741',7.200
'0:01.742',5.000
'0:01.743',3.100
'0:01.744',1.900
'0:01.745',1.400
'0:01.746',1.200
'0:01.747',1.100
'0:01.748',0.700
'0:01.749',0.100
'0:01.750',-0.300
'0:01.751',-0.400
'0:01.752',0.100
'0:01.753',0.900
'0:01.754',1.500
'0:01.755',1.500
'0:01.756',0.900
'0:01.757',-0.300
'0:01.758',-1.400
'0:01.759',-2.000
'0:01.760',-1.800
'0:01.761',-1.000
'0:01.762',0.200
'0:01.763',1.400
'0:01.764',2.300
'0:01.765',2.600
'0:01.766',2.500
'0:01.767',2.000
'0:01.768',1.500
'0:01.769',1.000
'0:01.770',0.600
'0:01.771',0.400
'0:01.772',0.200
'0:01.773',0.000
'0:01.774',-0.200
'0:01.775',-0.400
'0:01.776',-0.700
'0:01.777',-0.800
'0:01.778',-0.700
'0:01.779',-0.400
'0:01.780',0.200
'0:01.781',0.800
'0:01.782',1.100
'0:01.783',0.900
'0:01.784',0.400
'0:01.785',-0.300
'0:01.786',-0.900
'0:01.787',-1.300
'0:01.788',-1.400
'0:01.789',-1.400
'0:01.790',-1.600
'0:01.791',-2.000
'0:01.792',-2.700
'0:01.793',-3.300
'0:01.794',-3.700
'0:01.795',-3.600
'0:01.796',-3.000
'0:01.797',-1.900
'0:01.798',-0.400
'0:01.799',1.100
'0:01.800',2.200
'0:01.801',2.600
'0:01.802',2.100
'0:01.803',1.000
'0:01.804',-0.500
'0:01.805',-1.800
'0:01.806',-2.600
'0:01.807',-2.700
'0:01.808',-2.500
'0:01.809',-1.900
'0:01.810',-1.200
'0:01.811',-0.400
'0:01.812',0.300
'0:01.813',0.900
'0:01.814',1.300
'0:01.815',1.400
'0:01.816',1.300
'0:01.817',1.200
'0:01.818',1.300
'0:01.819',1.400
'0:01.820',1.400
'0:01.821',1.400
'0:01.822',1.300
'0:01.823',1.300
'0:01.824',1.600
'0:01.825',2.100
'0:01.826',2.400
'0:01.827',2.200
'0:01.828',1.600
'0:01.829',0.800
'0:01.830',0.500
'0:01.831',0.900
'0:01.832',2.000
'0:01.833',3.300
'0:01.834',4.000
'0:01.835',3.900
'0:01.836',3.100
'0:01.837',2.200
'0:01.838',1.700
'0:01.839',1.700
'0:01.840',2.000
'0:01.841',2.200
'0:01.842',2.000
'0:01.843',1.500
'0:01.844',1.000
'0:01.845',0.800
'0:01.846',0.700
'0:01.847',0.700
'0:01.848',0.400
'0:01.849',-0.400
'0:01.850',-1.500
'0:01.851',-2.500
'0:01.852',-3.300
'0:01.853',-3.600
'0:01.854',-3.700
'0:01.855',-3.500
'0:01.856',-3.300
'0:01.857',-3.100
'0:01.858',-2.800
'0:01.859',-2.600
'0:01.860',-2.400
'0:01.861',-2.300
'0:01.862',-2.400
'0:01.863',-2.700
'0:01.864',-2.900
'0:01.865',-3.200
'0:01.866',-3.400
'0:01.867',-3.600
'0:01.868',-3.800
'0:01.869',-4.400
'0:01.870',-5.200
'0:01.871',-6.300
'0:01.872',-7.400
'0:01.873',-8.200
'0:01.874',-8.200
'0:01.875',-7.500
'0:01.876',-6.200
'0:01.877',-4.700
'0:01.878',-3.800
'0:01.879',-3.500
'0:01.880',-3.800
'0:01.881',-4.500
'0:01.882',-5.000
'0:01.883',-5.100
'0:01.884',-4.800
'0:01.885',-4.200
'0:01.886',-3.600
'0:01.887',-3.000
'0:01.888',-2.400
'0:01.889',-1.800
'0:01.890',-1.300
'0:01.891',-0.900
'0:01.892',-0.500
'0:01.893',-0.300
'0:01.894',-0.200
'0:01.895',-0.400
'0:01.896',-0.800
'0:01.897',-1.600
'0:01.898',-2.400
'0:01.899',-2.900
'0:01.900',-2.800
'0:01.901',-1.900
'0:01.902',-0.700
'0:01.903',0.400
'0:01.904',0.900
'0:01.905',0.600
'0:01.906',-0.300
'0:01.907',-1.200
'0:01.908',-1.600
'0:01.909',-1.300
'0:01.910',-0.500
'0:01.911',0.400
'0:01.912',1.100
'0:01.913',1.100
'0:01.914',0.800
'0:01.915',0.300
'0:01.916',-0.100
'0:01.917',-0.200
'0:01.918',-0.200
'0:01.919',-0.200
'0:01.920',-0.600
'0:01.921',-1.300
'0:01.922',-2.300
'0:01.923',-3.100
'0:01.924',-3.500
'0:01.925',-3.500
'0:01.926',-3.300
'0:01.927',-3.200
'0:01.928',-3.600
'0:01.929',-4.300
'0:01.930',-5.100
'0:01.931',-5.500
'0:01.932',-5.100
'0:01.933',-3.900
'0:01.934',-2.400
'0:01.935',-0.800
'0:01.936',0.300
'0:01.937',1.000
'0:01.938',1.600
'0:01.939',2.200
'0:01.940',2.800
'0:01.941',3.100
'0:01.942',2.900
'0:01.943',1.900
'0:01.944',0.600
'0:01.945',-0.600
'0:01.946',-1.400
'0:01.947',-1.800
'0:01.948',-2.000
'0:01.949',-2.400
'0:01.950',-3.400
'0:01.951',-4.600
'0:01.952',-5.900
'0:01.953',-6.800
'0:01.954',-7.100
'0:01.955',-6.900
'0:01.956',-6.500
'0:01.957',-6.100
'0:01.958',-5.800
'0:01.959',-5.500
'0:01.960',-5.200
'0:01.961',-4.800
'0:01.962',-4.100
'0:01.963',-3.500
'0:01.964',-3.100
'0:01.965',-3.100
'0:01.966',-3.700
'0:01.967',-4.600
'0:01.968',-5.400
'0:01.969',-5.800
'0:01.970',-5.700
'0:01.971',-5.200
'0:01.972',-4.700
'0:01.973',-4.500
'0:01.974',-4.600
'0:01.975',-4.900
'0:01.976',-5.100
'0:01.977',-5.000
'0:01.978',-4.700
'0:01.979',-4.300
'0:01.980',-4.100
'0:01.981',-4.000
'0:01.982',-4.100
'0:01.983',-4.100
'0:01.984',-4.200
'0:01.985',-4.500
'0:01.986',-5.000
'0:01.987',-5.700
'0:01.988',-6.400
'0:01.989',-6.900
'0:01.990',-7.000
'0:01.991',-6.700
'0:01.992',-6.200
'0:01.993',-5.700
'0:01.994',-5.300
'0:01.995',-5.000
'0:01.996',-4.600
'0:01.997',-4.000
'0:01.998',-3.300
'0:01.999',-2.700
'0:02.000',-2.400
'0:02.001',-2.600
'0:02.002',-3.200
'0:02.003',-4.100
'0:02.004',-4.700
'0:02.005',-4.700
'0:02.006',-4.000
'0:02.007',-2.700
'0:02.008',-1.400
'0:02.009',-0.500
'0:02.010',-0.400
'0:02.011',-0.800
'0:02.012',-1.400
'0:02.013',-1.500
'0:02.014',-1.100
'0:02.015',-0.200
'0:02.016',0.600
'0:02.017',1.000
'0:02.018',0.700
'0:02.019',0.000
'0:02.020',-0.800
'0:02.021',-1.200
'0:02.022',-0.800
'0:02.023',0.000
'0:02.024',0.700
'0:02.025',1.100
'0:02.026',0.800
'0:02.027',0.300
'0:02.028',-0.200
'0:02.029',0.000
'0:02.030',0.700
'0:02.031',1.600
'0:02.032',2.300
'0:02.033',2.500
'0:02.034',2.000
'0:02.035',1.200
'0:02.036',0.400
'0:02.037',-0.100
'0:02.038',0.200
'0:02.039',1.400
'0:02.040',3.500
'0:02.041',6.600
'0:02.042',10.100
'0:02.043',13.500
'0:02.044',16.000
'0:02.045',17.000
'0:02.046',16.500
'0:02.047',15.000
'0:02.048',13.100
'0:02.049',11.100
'0:02.050',9.300
'0:02.051',7.200
'0:02.052',4.400
'0:02.053',0.700
'0:02.054',-3.700
'0:02.055',-8.000
'0:02.056',-11.600
'0:02.057',-13.800
'0:02.058',-14.700
'0:02.059',-14.600
'0:02.060',-14.100
'0:02.061',-13.500
'0:02.062',-12.900
'0:02.063',-12.000
'0:02.064',-10.700
'0:02.065',-9.100
'0:02.066',-7.600
'0:02.067',-6.400
'0:02.068',-5.900
'0:02.069',-5.800
'0:02.070',-5.700
'0:02.071',-5.300
'0:02.072',-4.400
'0:02.073',-3.500
'0:02.074',-2.800
'0:02.075',-2.500
'0:02.076',-2.500
'0:02.077',-2.600
'0:02.078',-2.500
'0:02.079',-2.600
'0:02.080',-2.900
'0:02.081',-3.600
'0:02.082',-4.400
'0:02.083',-4.900
'0:02.084',-4.800
'0:02.085',-3.900
'0:02.086',-2.900
'0:02.087',-2.300
'0:02.088',-2.500
'0:02.089',-3.400
'0:02.090',-4.500
'0:02.091',-5.100
'0:02.092',-4.900
'0:02.093',-3.800
'0:02.094',-2.300
'0:02.095',-0.900
'0:02.096',-0.100
'0:02.097',0.200
'0:02.098',-0.200
'0:02.099',-0.800
'0:02.100',-1.400
'0:02.101',-2.000
'0:02.102',-2.300
'0:02.103',-2.500
'0:02.104',-2.700
'0:02.105',-3.000
'0:02.106',-3.500
'0:02.107',-4.100
'0:02.108',-4.600
'0:02.109',-4.800
'0:02.110',-4.700
'0:02.111',-4.400
'0:02.112',-4.000
'0:02.113',-3.700
'0:02.114',-3.700
'0:02.115',-3.600
'0:02.116',-3.700
'0:02.117',-3.600
'0:02.118',-3.600
'0:02.119',-3.700
'0:02.120',-3.700
'0:02.121',-3.700
'0:02.122',-3.500
'0:02.123',-3.100
'0:02.124',-2.500
'0:02.125',-2.100
'0:02.126',-2.000
'0:02.127',-2.300
'0:02.128',-2.700
'0:02.129',-3.100
'0:02.130',-3.000
'0:02.131',-2.600
'0:02.132',-1.800
'0:02.133',-1.200
'0:02.134',-1.000
'0:02.135',-1.400
'0:02.136',-2.200
'0:02.137',-2.900
'0:02.138',-3.200
'0:02.139',-2.900
'0:02.140',-2.000
'0:02.141',-1.000
'0:02.142',-0.100
'0:02.143',0.900
'0:02.144',2.100
'0:02.145',3.900
'0:02.146',6.200
'0:02.147',8.800
'0:02.148',11.400
'0:02.149',13.600
'0:02.150',15.600
'0:02.151',17.300
'0:02.152',18.900
'0:02.153',20.100
'0:02.154',20.800
'0:02.155',20.800
'0:02.156',20.500
'0:02.157',20.100
'0:02.158',19.900
'0:02.159',20.000
'0:02.160',20.100
'0:02.161',19.700
'0:02.162',18.500
'0:02.163',16.900
'0:02.164',15.100
'0:02.165',13.600
'0:02.166',12.100
'0:02.167',10.500
'0:02.168',8.200
'0:02.169',5.300
'0:02.170',1.900
'0:02.171',-1.200
'0:02.172',-3.300
'0:02.173',-4.100
'0:02.174',-3.600
'0:02.175',-2.000
'0:02.176',-0.100
'0:02.177',1.500
'0:02.178',2.200
'0:02.179',1.800
'0:02.180',0.300
'0:02.181',-1.700
'0:02.182',-3.700
'0:02.183',-5.200
'0:02.184',-6.100
'0:02.185',-6.700
'0:02.186',-7.200
'0:02.187',-8.200
'0:02.188',-9.700
'0:02.189',-11.400
'0:02.190',-12.800
'0:02.191',-13.600
'0:02.192',-13.900
'0:02.193',-13.800
'0:02.194',-13.900
'0:02.195',-14.400
'0:02.196',-15.300
'0:02.197',-16.600
'0:02.198',-17.600
'0:02.199',-18.100
'0:02.200',-17.800
'0:02.201',-17.000
'0:02.202',-16.000
'0:02.203',-15.300
'0:02.204',-15.200
'0:02.205',-15.400
'0:02.206',-15.800
'0:02.207',-15.800
'0:02.208',-15.200
'0:02.209',-14.200
'0:02.210',-12.900
'0:02.211',-11.500
'0:02.212',-10.100
'0:02.213',-8.700
'0:02.214',-7.200
'0:02.215',-5.700
'0:02.216',-4.400
'0:02.217',-3.500
'0:02.218',-2.900
'0:02.219',-2.500
'0:02.220',-2.200
'0:02.221',-1.700
'0:02.222',-1.200
'0:02.223',-0.800
'0:02.224',-0.400
'0:02.225',0.100
'0:02.226',0.700
'0:02.227',1.500
'0:02.228',2.300
'0:02.229',2.800
'0:02.230',2.600
'0:02.231',1.900
'0:02.232',0.800
'0:02.233',-0.200
'0:02.234',-0.700
'0:02.235',-0.800
'0:02.236',-0.600
'0:02.237',-0.600
'0:02.238',-1.000
'0:02.239',-1.600
'0:02.240',-2.100
'0:02.241',-2.100
'0:02.242',-1.800
'0:02.243',-1.500
'0:02.244',-1.500
'0:02.245',-1.900
'0:02.246',-2.400
'0:02.247',-2.600
'0:02.248',-2.300
'0:02.249',-1.600
'0:02.250',-1.000
'0:02.251',-1.000
'0:02.252',-1.500
'0:02.253',-2.300
'0:02.254',-2.800
'0:02.255',-2.600
'0:02.256',-1.700
'0:02.257',-0.500
'0:02.258',0.600
'0:02.259',1.100
'0:02.260',1.200
'0:02.261',1.100
'0:02.262',1.200
'0:02.263',1.800
'0:02.264',2.800
'0:02.265',3.700
'0:02.266',4.200
'0:02.267',4.000
'0:02.268',3.200
'0:02.269',2.000
'0:02.270',0.600
'0:02.271',-0.600
'0:02.272',-1.500
'0:02.273',-2.100
'0:02.274',-2.200
'0:02.275',-2.000
'0:02.276',-1.600
'0:02.277',-1.100
'0:02.278',-0.600
'0:02.279',0.000
'0:02.280',0.500
'0:02.281',1.000
'0:02.282',1.500
'0:02.283',1.900
'0:02.284',2.300
'0:02.285',2.300
'0:02.286',2.100
'0:02.287',1.700
'0:02.288',1.000
'0:02.289',0.500
'0:02.290',0.100
'0:02.291',0.000
'0:02.292',0.300
'0:02.293',0.900
'0:02.294',1.700
'0:02.295',2.400
'0:02.296',2.700
'0:02.297',2.600
'0:02.298',1.800
'0:02.299',0.800
'0:02.300',-0.300
'0:02.301',-1.100
'0:02.302',-1.600
'0:02.303',-1.700
'0:02.304',-1.800
'0:02.305',-1.900
'0:02.306',-2.000
'0:02.307',-1.800
'0:02.308',-1.200
'0:02.309',-0.200
'0:02.310',0.900
'0:02.311',1.600
'0:02.312',1.700
'0:02.313',1.300
'0:02.314',0.600
'0:02.315',-0.100
'0:02.316',-0.700
'0:02.317',-1.100
'0:02.318',-1.600
'0:02.319',-2.100
'0:02.320',-2.500
'0:02.321',-2.500
'0:02.322',-2.000
'0:02.323',-1.100
'0:02.324',0.000
'0:02.325',1.000
'0:02.326',1.600
'0:02.327',2.000
'0:02.328',2.100
'0:02.329',2.300
'0:02.330',2.400
'0:02.331',2.600
'0:02.332',2.600
'0:02.333',2.700
'0:02.334',2.700
'0:02.335',2.800
'0:02.336',2.700
'0:02.337',2.400
'0:02.338',1.700
'0:02.339',0.800
'0:02.340',0.000
'0:02.341',-0.300
'0:02.342',0.000
'0:02.343',0.700
'0:02.344',1.300
'0:02.345',1.400
'0:02.346',0.700
'0:02.347',-0.400
'0:02.348',-1.500
'0:02.349',-2.100
'0:02.350',-2.100
'0:02.351',-1.800
'0:02.352',-1.400
'0:02.353',-1.300
'0:02.354',-1.500
'0:02.355',-1.600
'0:02.356',-1.500
'0:02.357',-1.200
'0:02.358',-0.600
'0:02.359',0.100
'0:02.360',0.800
'0:02.361',1.600
'0:02.362',2.600
'0:02.363',3.500
'0:02.364',4.200
'0:02.365',4.500
'0:02.366',4.100
'0:02.367',3.400
'0:02.368',2.600
'0:02.369',2.000
'0:02.370',1.600
'0:02.371',1.400
'0:02.372',1.300
'0:02.373',1.100
'0:02.374',1.000
'0:02.375',0.900
'0:02.376',1.000
'0:02.377',1.200
'0:02.378',1.400
'0:02.379',1.400
'0:02.380',1.300
'0:02.381',1.300
'0:02.382',1.300
'0:02.383',1.300
'0:02.384',1.200
'0:02.385',0.900
'0:02.386',0.400
'0:02.387',-0.200
'0:02.388',-0.600
'0:02.389',-0.700
'0:02.390',-0.300
'0:02.391',0.400
'0:02.392',1.400
'0:02.393',2.300
'0:02.394',3.100
'0:02.395',3.700
'0:02.396',4.000
'0:02.397',4.100
'0:02.398',3.800
'0:02.399',3.200
'0:02.400',2.400
'0:02.401',1.600
'0:02.402',1.100
'0:02.403',1.100
'0:02.404',1.500
'0:02.405',2.200
'0:02.406',2.900
'0:02.407',3.400
'0:02.408',3.400
'0:02.409',2.900
'0:02.410',2.200
'0:02.411',1.600
'0:02.412',1.200
'0:02.413',1.200
'0:02.414',1.600
'0:02.415',2.100
'0:02.416',2.600
'0:02.417',2.900
'0:02.418',3.200
'0:02.419',3.300
'0:02.420',3.300
'0:02.421',3.100
'0:02.422',2.800
'0:02.423',2.300
'0:02.424',2.000
'0:02.425',2.400
'0:02.426',3.500
'0:02.427',5.300
'0:02.428',7.200
'0:02.429',8.600
'0:02.430',9.000
'0:02.431',8.500
'0:02.432',7.500
'0:02.433',6.700
'0:02.434',6.400
'0:02.435',6.800
'0:02.436',7.500
'0:02.437',8.400
'0:02.438',9.100
'0:02.439',9.700
'0:02.440',10.200
'0:02.441',10.700
'0:02.442',11.100
'0:02.443',11.200
'0:02.444',10.900
'0:02.445',10.300
'0:02.446',9.200
'0:02.447',7.900
'0:02.448',6.600
'0:02.449',5.300
'0:02.450',4.300
'0:02.451',3.700
'0:02.452',3.400
'0:02.453',3.200
'0:02.454',3.100
'0:02.455',3.000
'0:02.456',2.700
'0:02.457',2.600
'0:02.458',2.800
'0:02.459',3.300
'0:02.460',4.200
'0:02.461',5.100
'0:02.462',5.900
'0:02.463',6.100
'0:02.464',5.900
'0:02.465',5.200
'0:02.466',4.400
'0:02.467',3.800
'0:02.468',3.700
'0:02.469',4.000
'0:02.470',4.400
'0:02.471',4.600
'0:02.472',4.400
'0:02.473',3.900
'0:02.474',3.300
'0:02.475',2.800
'0:02.476',2.700
'0:02.477',2.900
'0:02.478',3.200
'0:02.479',3.400
'0:02.480',3.400
'0:02.481',3.200
'0:02.482',2.700
'0:02.483',2.000
'0:02.484',1.300
'0:02.485',0.600
'0:02.486',0.000
'0:02.487',-0.200
'0:02.488',-0.300
'0:02.489',-0.500
'0:02.490',-1.100
'0:02.491',-2.400
'0:02.492',-4.000
'0:02.493',-5.500
'0:02.494',-6.500
'0:02.495',-6.700
'0:02.496',-6.200
'0:02.497',-5.200
'0:02.498',-4.000
'0:02.499',-2.900
'0:02.500',-1.700
'0:02.501',-0.700
'0:02.502',0.300
'0:02.503',1.200
'0:02.504',2.300
'0:02.505',4.100
'0:02.506',7.000
'0:02.507',11.100
'0:02.508',15.800
'0:02.509',19.900
'0:02.510',22.400
'0:02.511',22.400
'0:02.512',19.900
'0:02.513',15.900
'0:02.514',11.600
'0:02.515',7.900
'0:02.516',5.100
'0:02.517',2.700
'0:02.518',0.200
'0:02.519',-2.900
'0:02.520',-6.400
'0:02.521',-9.700
'0:02.522',-12.100
'0:02.523',-13.200
'0:02.524',-13.200
'0:02.525',-12.300
'0:02.526',-11.200
'0:02.527',-10.200
'0:02.528',-9.400
'0:02.529',-8.600
'0:02.530',-7.700
'0:02.531',-6.600
'0:02.532',-5.400
'0:02.533',-4.200
'0:02.534',-3.400
'0:02.535',-3.000
'0:02.536',-3.100
'0:02.537',-3.500
'0:02.538',-4.100
'0:02.539',-4.400
'0:02.540',-4.400
'0:02.541',-3.700
'0:02.542',-2.700
'0:02.543',-1.600
'0:02.544',-0.800
'0:02.545',-0.400
'0:02.546',-0.500
'0:02.547',-0.900
'0:02.548',-1.400
'0:02.549',-2.000
'0:02.550',-2.600
'0:02.551',-3.400
'0:02.552',-4.300
'0:02.553',-5.100
'0:02.554',-5.700
'0:02.555',-6.000
'0:02.556',-5.900
'0:02.557',-5.600
'0:02.558',-5.200
'0:02.559',-4.800
'0:02.560',-4.200
'0:02.561',-3.600
'0:02.562',-3.100
'0:02.563',-2.800
'0:02.564',-2.800
'0:02.565',-3.100
'0:02.566',-3.300
'0:02.567',-3.500
'0:02.568',-3.500
'0:02.569',-3.300
'0:02.570',-3.200
'0:02.571',-3.200
'0:02.572',-3.300
'0:02.573',-3.400
'0:02.574',-3.300
'0:02.575',-3.200
'0:02.576',-3.200
'0:02.577',-3.600
'0:02.578',-4.300
'0:02.579',-5.300
'0:02.580',-6.200
'0:02.581',-6.600
'0:02.582',-6.400
'0:02.583',-5.800
'0:02.584',-5.000
'0:02.585',-4.400
'0:02.586',-4.000
'0:02.587',-3.800
'0:02.588',-3.400
'0:02.589',-2.700
'0:02.590',-1.800
'0:02.591',-1.100
'0:02.592',-1.000
'0:02.593',-1.600
'0:02.594',-2.900
'0:02.595',-4.400
'0:02.596',-5.500
'0:02.597',-5.900
'0:02.598',-5.600
'0:02.599',-5.000
'0:02.600',-4.400
'0:02.601',-4.000
'0:02.602',-3.900
'0:02.603',-4.000
'0:02.604',-3.900
'0:02.605',-3.800
'0:02.606',-3.800
'0:02.607',-4.000
'0:02.608',-4.400
'0:02.609',-4.900
'0:02.610',-5.100
'0:02.611',-4.800
'0:02.612',-4.200
'0:02.613',-3.500
'0:02.614',-3.000
'0:02.615',-3.000
'0:02.616',-3.600
'0:02.617',-4.500
'0:02.618',-5.300
'0:02.619',-5.800
'0:02.620',-5.800
'0:02.621',-5.500
'0:02.622',-5.000
'0:02.623',-4.600
'0:02.624',-4.500
'0:02.625',-4.700
'0:02.626',-5.000
'0:02.627',-5.000
'0:02.628',-4.600
'0:02.629',-3.800
'0:02.630',-2.600
'0:02.631',-1.600
'0:02.632',-1.100
'0:02.633',-1.400
'0:02.634',-2.300
'0:02.635',-3.400
'0:02.636',-4.000
'0:02.637',-4.000
'0:02.638',-3.300
'0:02.639',-2.500
'0:02.640',-1.900
'0:02.641',-2.100
'0:02.642',-2.800
'0:02.643',-4.000
'0:02.644',-5.100
'0:02.645',-5.800
'0:02.646',-6.000
'0:02.647',-5.900
'0:02.648',-5.500
'0:02.649',-5.100
'0:02.650',-4.800
'0:02.651',-4.600
'0:02.652',-4.400
'0:02.653',-4.200
'0:02.654',-4.000
'0:02.655',-3.900
'0:02.656',-3.900
'0:02.657',-3.900
'0:02.658',-3.800
'0:02.659',-3.300
'0:02.660',-2.400
'0:02.661',-1.300
'0:02.662',-0.200
'0:02.663',0.500
'0:02.664',0.600
'0:02.665',0.100
'0:02.666',-0.900
'0:02.667',-2.100
'0:02.668',-3.300
'0:02.669',-4.300
'0:02.670',-5.100
'0:02.671',-5.400
'0:02.672',-5.300
'0:02.673',-4.600
'0:02.674',-3.700
'0:02.675',-2.600
'0:02.676',-1.900
'0:02.677',-1.700
'0:02.678',-2.200
'0:02.679',-3.100
'0:02.680',-4.100
'0:02.681',-4.700
'0:02.682',-4.600
'0:02.683',-4.000
'0:02.684',-3.300
'0:02.685',-2.800
'0:02.686',-2.700
'0:02.687',-3.100
'0:02.688',-3.500
'0:02.689',-3.700
'0:02.690',-3.500
'0:02.691',-3.300
'0:02.692',-3.300
'0:02.693',-3.900
'0:02.694',-4.800
'0:02.695',-5.400
'0:02.696',-5.500
'0:02.697',-4.700
'0:02.698',-3.400
'0:02.699',-2.300
'0:02.700',-1.900
'0:02.701',-2.300
'0:02.702',-3.100
'0:02.703',-3.700
'0:02.704',-3.600
'0:02.705',-2.900
'0:02.706',-1.900
'0:02.707',-1.200
'0:02.708',-1.100
'0:02.709',-1.600
'0:02.710',-2.500
'0:02.711',-3.200
'0:02.712',-3.700
'0:02.713',-3.800
'0:02.714',-3.700
'0:02.715',-3.500
'0:02.716',-3.500
'0:02.717',-3.500
'0:02.718',-3.700
'0:02.719',-3.800
'0:02.720',-3.900
'0:02.721',-4.000
'0:02.722',-3.900
'0:02.723',-3.900
'0:02.724',-3.800
'0:02.725',-4.000
'0:02.726',-4.400
'0:02.727',-5.000
'0:02.728',-5.800
'0:02.729',-6.400
'0:02.730',-6.700
'0:02.731',-6.400
'0:02.732',-5.900
'0:02.733',-5.500
'0:02.734',-5.500
'0:02.735',-6.300
'0:02.736',-7.600
'0:02.737',-9.000
'0:02.738',-10.100
'0:02.739',-10.300
'0:02.740',-9.800
'0:02.741',-8.800
'0:02.742',-7.800
'0:02.743',-7.000
'0:02.744',-6.700
'0:02.745',-6.700
'0:02.746',-6.900
'0:02.747',-7.000
'0:02.748',-7.100
'0:02.749',-7.200
'0:02.750',-7.200
'0:02.751',-7.300
'0:02.752',-7.300
'0:02.753',-7.100
'0:02.754',-6.700
'0:02.755',-6.200
'0:02.756',-6.000
'0:02.757',-6.200
'0:02.758',-7.000
'0:02.759',-8.300
'0:02.760',-9.600
'0:02.761',-10.600
'0:02.762',-10.900
'0:02.763',-10.700
'0:02.764',-10.300
'0:02.765',-9.900
'0:02.766',-10.000
'0:02.767',-10.300
'0:02.768',-10.600
'0:02.769',-10.800
'0:02.770',-10.700
'0:02.771',-10.600
'0:02.772',-10.600
'0:02.773',-10.900
'0:02.774',-11.200
'0:02.775',-11.400
'0:02.776',-11.000
'0:02.777',-10.200
'0:02.778',-9.100
'0:02.779',-8.100
'0:02.780',-7.600
'0:02.781',-7.600
'0:02.782',-8.000
'0:02.783',-8.300
'0:02.784',-8.300
'0:02.785',-8.100
'0:02.786',-7.700
'0:02.787',-7.400
'0:02.788',-7.300
'0:02.789',-7.400
'0:02.790',-7.600
'0:02.791',-7.600
'0:02.792',-7.300
'0:02.793',-6.800
'0:02.794',-6.100
'0:02.795',-5.400
'0:02.796',-4.900
'0:02.797',-4.600
'0:02.798',-4.600
'0:02.799',-4.800
'0:02.800',-5.200
'0:02.801',-5.600
'0:02.802',-6.000
'0:02.803',-6.100
'0:02.804',-5.900
'0:02.805',-5.500
'0:02.806',-5.000
'0:02.807',-4.600
'0:02.808',-4.500
'0:02.809',-4.800
'0:02.810',-5.600
'0:02.811',-6.700
'0:02.812',-7.900
'0:02.813',-8.900
'0:02.814',-9.300
'0:02.815',-9.100
'0:02.816',-8.300
'0:02.817',-7.100
'0:02.818',-6.000
'0:02.819',-5.200
'0:02.820',-5.100
'0:02.821',-5.500
'0:02.822',-6.200
'0:02.823',-6.800
'0:02.824',-7.000
'0:02.825',-6.800
'0:02.826',-6.300
'0:02.827',-5.900
'0:02.828',-5.700
'0:02.829',-5.800
'0:02.830',-6.200
'0:02.831',-6.600
'0:02.832',-6.900
'0:02.833',-7.100
'0:02.834',-7.100
'0:02.835',-6.900
'0:02.836',-6.600
'0:02.837',-5.900
'0:02.838',-5.000
'0:02.839',-3.900
'0:02.840',-2.700
'0:02.841',-1.600
'0:02.842',-0.600
'0:02.843',0.400
'0:02.844',1.500
'0:02.845',2.900
'0:02.846',4.500
'0:02.847',6.200
'0:02.848',8.000
'0:02.849',9.700
'0:02.850',11.400
'0:02.851',13.200
'0:02.852',15.100
'0:02.853',17.100
'0:02.854',18.900
'0:02.855',20.000
'0:02.856',20.300
'0:02.857',19.900
'0:02.858',19.000
'0:02.859',18.100
'0:02.860',17.400
'0:02.861',17.100
'0:02.862',16.700
'0:02.863',16.000
'0:02.864',14.700
'0:02.865',12.700
'0:02.866',10.400
'0:02.867',8.100
'0:02.868',5.900
'0:02.869',3.800
'0:02.870',1.800
'0:02.871',-0.200
'0:02.872',-2.000
'0:02.873',-3.200
'0:02.874',-3.600
'0:02.875',-3.100
'0:02.876',-2.300
'0:02.877',-1.800
'0:02.878',-2.400
'0:02.879',-4.300
'0:02.880',-7.500
'0:02.881',-11.100
'0:02.882',-14.600
'0:02.883',-17.400
'0:02.884',-19.600
'0:02.885',-21.200
'0:02.886',-22.600
'0:02.887',-23.800
'0:02.888',-24.800
'0:02.889',-25.400
'0:02.890',-25.600
'0:02.891',-25.400
'0:02.892',-24.800
'0:02.893',-24.200
'0:02.894',-23.800
'0:02.895',-23.900
'0:02.896',-24.400
'0:02.897',-25.200
'0:02.898',-25.800
'0:02.899',-25.500
'0:02.900',-24.400
'0:02.901',-22.800
'0:02.902',-21.200
'0:02.903',-20.300
'0:02.904',-20.100
'0:02.905',-20.100
'0:02.906',-19.600
'0:02.907',-18.200
'0:02.908',-16.000
'0:02.909',-13.700
'0:02.910',-12.200
'0:02.911',-11.700
'0:02.912',-12.200
'0:02.913',-12.900
'0:02.914',-13.200
'0:02.915',-12.600
'0:02.916',-11.200
'0:02.917',-9.400
'0:02.918',-7.600
'0:02.919',-6.200
'0:02.920',-5.300
'0:02.921',-5.000
'0:02.922',-5.000
'0:02.923',-5.200
'0:02.924',-5.400
'0:02.925',-5.200
'0:02.926',-4.700
'0:02.927',-3.800
'0:02.928',-3.200
'0:02.929',-3.000
'0:02.930',-3.600
'0:02.931',-4.600
'0:02.932',-5.600
'0:02.933',-6.100
'0:02.934',-5.900
'0:02.935',-5.100
'0:02.936',-4.400
'0:02.937',-4.000
'0:02.938',-4.000
'0:02.939',-4.200
'0:02.940',-4.100
'0:02.941',-3.500
'0:02.942',-2.600
'0:02.943',-1.800
'0:02.944',-1.500
'0:02.945',-1.900
'0:02.946',-2.600
'0:02.947',-3.400
'0:02.948',-3.700
'0:02.949',-3.500
'0:02.950',-2.800
'0:02.951',-2.000
'0:02.952',-1.200
'0:02.953',-0.800
'0:02.954',-0.500
'0:02.955',-0.400
'0:02.956',-0.500
'0:02.957',-0.800
'0:02.958',-1.400
'0:02.959',-2.100
'0:02.960',-3.000
'0:02.961',-3.600
'0:02.962',-4.000
'0:02.963',-4.000
'0:02.964',-3.800
'0:02.965',-3.600
'0:02.966',-3.300
'0:02.967',-3.000
'0:02.968',-2.600
'0:02.969',-2.000
'0:02.970',-1.100
'0:02.971',0.300
'0:02.972',2.300
'0:02.973',5.000
'0:02.974',8.700
'0:02.975',12.900
'0:02.976',17.100
'0:02.977',20.600
'0:02.978',22.700
'0:02.979',22.900
'0:02.980',21.400
'0:02.981',18.700
'0:02.982',15.600
'0:02.983',12.700
'0:02.984',10.500
'0:02.985',8.600
'0:02.986',6.800
'0:02.987',4.700
'0:02.988',2.100
'0:02.989',-0.900
'0:02.990',-3.600
'0:02.991',-5.500
'0:02.992',-6.200
'0:02.993',-5.700
'0:02.994',-4.400
'0:02.995',-2.800
'0:02.996',-1.400
'0:02.997',-0.400
'0:02.998',0.300
'0:02.999',0.700
'0:03.000',0.700
'0:03.001',0.300
'0:03.002',-0.300
'0:03.003',-1.000
'0:03.004',-1.400
'0:03.005',-1.400
'0:03.006',-1.000
'0:03.007',-0.700
'0:03.008',-0.700
'0:03.009',-1.200
'0:03.010',-2.000
'0:03.011',-2.900
'0:03.012',-3.400
'0:03.013',-3.400
'0:03.014',-3.000
'0:03.015',-2.600
'0:03.016',-2.200
'0:03.017',-2.000
'0:03.018',-1.700
'0:03.019',-1.300
'0:03.020',-0.700
'0:03.021',0.100
'0:03.022',0.800
'0:03.023',1.200
'0:03.024',1.200
'0:03.025',0.600
'0:03.026',-0.300
'0:03.027',-1.300
'0:03.028',-1.800
'0:03.029',-1.800
'0:03.030',-1.200
'0:03.031',-0.400
'0:03.032',0.300
'0:03.033',0.600
'0:03.034',0.500
'0:03.035',0.200
'0:03.036',0.100
'0:03.037',0.500
'0:03.038',1.500
'0:03.039',2.700
'0:03.040',3.900
'0:03.041',4.600
'0:03.042',5.000
'0:03.043',5.000
'0:03.044',5.100
'0:03.045',5.500
'0:03.046',6.200
'0:03.047',7.000
'0:03.048',7.600
'0:03.049',7.900
'0:03.050',7.600
'0:03.051',7.100
'0:03.052',6.700
'0:03.053',6.500
'0:03.054',6.800
'0:03.055',7.300
'0:03.056',7.700
'0:03.057',7.500
'0:03.058',6.600
'0:03.059',5.400
'0:03.060',4.400
'0:03.061',3.900
'0:03.062',4.300
'0:03.063',5.200
'0:03.064',6.100
'0:03.065',6.500
'0:03.066',6.100
'0:03.067',5.300
'0:03.068',4.500
'0:03.069',4.200
'0:03.070',4.700
'0:03.071',5.700
'0:03.072',6.600
'0:03.073',7.100
'0:03.074',7.100
'0:03.075',6.700
'0:03.076',6.400
'0:03.077',6.600
'0:03.078',7.200
'0:03.079',8.100
'0:03.080',8.800
'0:03.081',8.900
'0:03.082',8.300
'0:03.083',7.200
'0:03.084',6.000
'0:03.085',5.400
'0:03.086',5.400
'0:03.087',6.100
'0:03.088',6.900
'0:03.089',7.400
'0:03.090',7.400
'0:03.091',7.000
'0:03.092',6.500
'0:03.093',6.300
'0:03.094',6.600
'0:03.095',7.200
'0:03.096',7.600
'0:03.097',7.700
'0:03.098',7.400
'0:03.099',7.100
'0:03.100',7.200
'0:03.101',7.900
'0:03.102',9.300
'0:03.103',10.800
'0:03.104',12.000
'0:03.105',12.600
'0:03.106',12.300
'0:03.107',11.600
'0:03.108',10.600
'0:03.109',9.700
'0:03.110',9.200
'0:03.111',9.000
'0:03.112',9.100
'0:03.113',9.100
'0:03.114',8.900
'0:03.115',8.500
'0:03.116',7.900
'0:03.117',7.200
'0:03.118',6.700
'0:03.119',6.500
'0:03.120',6.600
'0:03.121',6.800
'0:03.122',7.100
'0:03.123',7.400
'0:03.124',7.700
'0:03.125',8.000
'0:03.126',8.300
'0:03.127',8.400
'0:03.128',8.300
'0:03.129',7.800
'0:03.130',7.200
'0:03.131',6.700
'0:03.132',6.500
'0:03.133',6.600
'0:03.134',6.800
'0:03.135',6.900
'0:03.136',6.600
'0:03.137',6.300
'0:03.138',6.200
'0:03.139',6.800
'0:03.140',7.900
'0:03.141',9.300
'0:03.142',10.400
'0:03.143',10.700
'0:03.144',10.200
'0:03.145',9.300
'0:03.146',8.500
'0:03.147',8.300
'0:03.148',8.600
'0:03.149',9.200
'0:03.150',9.400
'0:03.151',9.200
'0:03.152',8.500
'0:03.153',7.800
'0:03.154',7.200
'0:03.155',6.900
'0:03.156',6.700
'0:03.157',6.200
'0:03.158',5.500
'0:03.159',4.700
'0:03.160',4.300
'0:03.161',4.600
'0:03.162',5.400
'0:03.163',6.300
'0:03.164',6.700
'0:03.165',6.300
'0:03.166',5.200
'0:03.167',3.800
'0:03.168',2.700
'0:03.169',2.100
'0:03.170',2.000
'0:03.171',2.300
'0:03.172',2.800
'0:03.173',3.200
'0:03.174',3.600
'0:03.175',4.000
'0:03.176',4.300
'0:03.177',4.500
'0:03.178',4.600
'0:03.179',4.800
'0:03.180',5.100
'0:03.181',5.500
'0:03.182',5.900
'0:03.183',6.100
'0:03.184',6.000
'0:03.185',5.500
'0:03.186',4.700
'0:03.187',4.000
'0:03.188',3.400
'0:03.189',3.000
'0:03.190',2.800
'0:03.191',2.700
'0:03.192',2.600
'0:03.193',2.300
'0:03.194',2.000
'0:03.195',1.700
'0:03.196',1.600
'0:03.197',1.800
'0:03.198',2.200
'0:03.199',2.800
'0:03.200',3.200
'0:03.201',3.200
'0:03.202',2.800
'0:03.203',2.300
'0:03.204',2.000
'0:03.205',2.100
'0:03.206',2.700
'0:03.207',3.300
'0:03.208',3.700
'0:03.209',3.500
'0:03.210',2.800
'0:03.211',1.900
'0:03.212',1.200
'0:03.213',1.100
'0:03.214',1.500
'0:03.215',2.200
'0:03.216',2.700
'0:03.217',2.500
'0:03.218',1.700
'0:03.219',0.600
'0:03.220',-0.200
'0:03.221',-0.200
'0:03.222',0.700
'0:03.223',2.100
'0:03.224',3.400
'0:03.225',4.200
'0:03.226',4.300
'0:03.227',3.800
'0:03.228',3.200
'0:03.229',2.900
'0:03.230',2.700
'0:03.231',2.600
'0:03.232',2.400
'0:03.233',1.900
'0:03.234',1.300
'0:03.235',0.800
'0:03.236',0.700
'0:03.237',0.800
'0:03.238',1.100
'0:03.239',1.300
'0:03.240',1.400
'0:03.241',1.400
'0:03.242',1.300
'0:03.243',1.100
'0:03.244',0.800
'0:03.245',0.100
'0:03.246',-0.800
'0:03.247',-1.800
'0:03.248',-2.600
'0:03.249',-3.000
'0:03.250',-3.100
'0:03.251',-3.000
'0:03.252',-3.000
'0:03.253',-2.900
'0:03.254',-2.800
'0:03.255',-2.500
'0:03.256',-1.900
'0:03.257',-1.300
'0:03.258',-1.000
'0:03.259',-1.200
'0:03.260',-1.600
'0:03.261',-2.000
'0:03.262',-2.100
'0:03.263',-1.600
'0:03.264',-0.900
'0:03.265',-0.300
'0:03.266',-0.200
'0:03.267',-0.500
'0:03.268',-1.100
'0:03.269',-1.500
'0:03.270',-1.500
'0:03.271',-1.000
'0:03.272',-0.500
'0:03.273',-0.400
'0:03.274',-0.800
'0:03.275',-1.500
'0:03.276',-2.200
'0:03.277',-2.500
'0:03.278',-2.400
'0:03.279',-2.100
'0:03.280',-1.900
'0:03.281',-2.000
'0:03.282',-2.400
'0:03.283',-2.700
'0:03.284',-2.600
'0:03.285',-2.000
'0:03.286',-1.100
'0:03.287',-0.200
'0:03.288',0.200
'0:03.289',0.100
'0:03.290',-0.200
'0:03.291',-0.500
'0:03.292',-0.800
'0:03.293',-1.100
'0:03.294',-1.400
'0:03.295',-1.900
'0:03.296',-2.300
'0:03.297',-2.500
'0:03.298',-2.300
'0:03.299',-1.700
'0:03.300',-1.100
'0:03.301',-0.600
'0:03.302',-0.300
'0:03.303',-0.200
'0:03.304',0.000
'0:03.305',0.200
'0:03.306',0.400
'0:03.307',0.300
'0:03.308',0.200
'0:03.309',0.200
'0:03.310',0.500
'0:03.311',1.100
'0:03.312',1.600
'0:03.313',1.800
'0:03.314',1.200
'0:03.315',0.200
'0:03.316',-0.800
'0:03.317',-1.100
'0:03.318',-0.500
'0:03.319',0.800
'0:03.320',1.900
'0:03.321',2.300
'0:03.322',1.700
'0:03.323',0.600
'0:03.324',-0.400
'0:03.325',-0.700
'0:03.326',-0.500
'0:03.327',-0.200
'0:03.328',-0.100
'0:03.329',-0.600
'0:03.330',-1.200
'0:03.331',-1.600
'0:03.332',-1.200
'0:03.333',-0.100
'0:03.334',1.300
'0:03.335',2.400
'0:03.336',3.200
'0:03.337',3.500
'0:03.338',3.600
'0:03.339',3.600
'0:03.340',3.400
'0:03.341',2.700
'0:03.342',1.500
'0:03.343',-0.100
'0:03.344',-1.600
'0:03.345',-2.400
'0:03.346',-2.600
'0:03.347',-2.400
'0:03.348',-2.200
'0:03.349',-2.300
'0:03.350',-3.000
'0:03.351',-4.000
'0:03.352',-4.900
'0:03.353',-5.400
'0:03.354',-5.400
'0:03.355',-5.200
'0:03.356',-4.700
'0:03.357',-4.100
'0:03.358',-3.500
'0:03.359',-3.000
'0:03.360',-2.600
'0:03.361',-2.300
'0:03.362',-2.200
'0:03.363',-2.300
'0:03.364',-2.400
'0:03.365',-2.500
'0:03.366',-2.400
'0:03.367',-2.200
'0:03.368',-1.800
'0:03.369',-1.500
'0:03.370',-1.500
'0:03.371',-1.700
'0:03.372',-2.300
'0:03.373',-3.000
'0:03.374',-3.400
'0:03.375',-3.200
'0:03.376',-2.400
'0:03.377',-1.100
'0:03.378',0.000
'0:03.379',0.500
'0:03.380',0.200
'0:03.381',-0.800
'0:03.382',-2.100
'0:03.383',-3.400
'0:03.384',-4.300
'0:03.385',-4.800
'0:03.386',-4.900
'0:03.387',-4.700
'0:03.388',-4.300
'0:03.389',-3.700
'0:03.390',-3.000
'0:03.391',-2.400
'0:03.392',-2.100
'0:03.393',-2.200
'0:03.394',-2.600
'0:03.395',-3.400
'0:03.396',-4.200
'0:03.397',-4.700
'0:03.398',-4.800
'0:03.399',-4.500
'0:03.400',-4.000
'0:03.401',-3.600
'0:03.402',-3.200
'0:03.403',-2.900
'0:03.404',-2.600
'0:03.405',-2.100
'0:03.406',-1.300
'0:03.407',-0.500
'0:03.408',0.200
'0:03.409',0.600
'0:03.410',0.600
'0:03.411',0.400
'0:03.412',0.200
'0:03.413',0.100
'0:03.414',0.200
'0:03.415',0.100
'0:03.416',-0.100
'0:03.417',-0.500
'0:03.418',-0.800
'0:03.419',-1.000
'0:03.420',-0.900
'0:03.421',-0.500
'0:03.422',0.000
'0:03.423',0.200
'0:03.424',-0.100
'0:03.425',-0.900
'0:03.426',-2.300
'0:03.427',-3.800
'0:03.428',-5.000
'0:03.429',-5.500
'0:03.430',-5.400
'0:03.431',-4.600
'0:03.432',-3.800
'0:03.433',-3.100
'0:03.434',-2.800
'0:03.435',-2.400
'0:03.436',-1.800
'0:03.437',-0.700
'0:03.438',0.700
'0:03.439',2.100
'0:03.440',3.000
'0:03.441',3.700
'0:03.442',4.800
'0:03.443',7.000
'0:03.444',10.800
'0:03.445',15.600
'0:03.446',20.100
'0:03.447',23.000
'0:03.448',23.300
'0:03.449',21.500
'0:03.450',18.600
'0:03.451',15.800
'0:03.452',13.700
'0:03.453',11.800
'0:03.454',9.400
'0:03.455',5.700
'0:03.456',1.100
'0:03.457',-3.500
'0:03.458',-6.800
'0:03.459',-8.000
'0:03.460',-7.300
'0:03.461',-5.500
'0:03.462',-3.900
'0:03.463',-3.100
'0:03.464',-3.100
'0:03.465',-3.300
'0:03.466',-3.200
'0:03.467',-2.700
'0:03.468',-1.900
'0:03.469',-1.400
'0:03.470',-1.400
'0:03.471',-1.700
'0:03.472',-2.100
'0:03.473',-2.300
'0:03.474',-2.300
'0:03.475',-2.000
'0:03.476',-1.700
'0:03.477',-1.600
'0:03.478',-1.500
'0:03.479',-1.300
'0:03.480',-0.900
'0:03.481',-0.400
'0:03.482',0.100
'0:03.483',0.300
'0:03.484',0.000
'0:03.485',-0.700
'0:03.486',-1.600
'0:03.487',-2.700
'0:03.488',-3.600
'0:03.489',-4.200
'0:03.490',-4.600
'0:03.491',-4.800
'0:03.492',-4.700
'0:03.493',-4.400
'0:03.494',-3.900
'0:03.495',-3.200
'0:03.496',-2.100
'0:03.497',-0.800
'0:03.498',0.500
'0:03.499',1.600
'0:03.500',2.300
'0:03.501',2.400
'0:03.502',2.000
'0:03.503',1.200
'0:03.504',0.300
'0:03.505',-0.400
'0:03.506',-0.600
'0:03.507',-0.600
'0:03.508',-0.500
'0:03.509',-0.600
'0:03.510',-0.800
'0:03.511',-1.000
'0:03.512',-1.000
'0:03.513',-0.700
'0:03.514',-0.300
'0:03.515',0.100
'0:03.516',0.300
'0:03.517',0.100
'0:03.518',-0.400
'0:03.519',-0.800
'0:03.520',-1.000
'0:03.521',-0.900
'0:03.522',-0.500
'0:03.523',-0.100
'0:03.524',0.100
'0:03.525',0.000
'0:03.526',-0.300
'0:03.527',-0.600
'0:03.528',-0.800
'0:03.529',-0.800
'0:03.530',-0.600
'0:03.531',-0.500
'0:03.532',-0.400
'0:03.533',-0.500
'0:03.534',-0.600
'0:03.535',-0.400
'0:03.536',0.100
'0:03.537',0.900
'0:03.538',1.600
'0:03.539',1.900
'0:03.540',1.600
'0:03.541',1.100
'0:03.542',0.800
'0:03.543',0.900
'0:03.544',1.800
'0:03.545',3.400
'0:03.546',5.300
'0:03.547',7.200
'0:03.548',9.000
'0:03.549',10.600
'0:03.550',11.900
'0:03.551',13.000
'0:03.552',13.700
'0:03.553',14.200
'0:03.554',14.800
'0:03.555',15.900
'0:03.556',17.500
'0:03.557',19.800
'0:03.558',22.100
'0:03.559',24.000
'0:03.560',25.000
'0:03.561',25.000
'0:03.562',24.300
'0:03.563',23.300
'0:03.564',22.700
'0:03.565',22.500
'0:03.566',22.700
'0:03.567',22.900
'0:03.568',22.600
'0:03.569',21.800
'0:03.570',20.300
'0:03.571',18.300
'0:03.572',15.800
'0:03.573',13.100
'0:03.574',10.300
'0:03.575',7.500
'0:03.576',4.800
'0:03.577',2.400
'0:03.578',0.300
'0:03.579',-1.300
'0:03.580',-2.200
'0:03.581',-2.400
'0:03.582',-1.900
'0:03.583',-1.200
'0:03.584',-0.800
'0:03.585',-1.400
'0:03.586',-3.200
'0:03.587',-6.200
'0:03.588',-9.800
'0:03.589',-13.400
'0:03.590',-16.400
'0:03.591',-18.500
'0:03.592',-19.900
'0:03.593',-21.000
'0:03.594',-22.000
'0:03.595',-23.100
'0:03.596',-23.900
'0:03.597',-24.100
'0:03.598',-23.400
'0:03.599',-22.100
'0:03.600',-20.700
'0:03.601',-19.700
'0:03.602',-19.500
'0:03.603',-20.000
'0:03.604',-20.600
'0:03.605',-20.800
'0:03.606',-20.300
'0:03.607',-19.300
'0:03.608',-17.900
'0:03.609',-16.700
'0:03.610',-15.700
'0:03.611',-14.900
'0:03.612',-14.200
'0:03.613',-13.300
'0:03.614',-12.300
'0:03.615',-11.200
'0:03.616',-10.000
'0:03.617',-8.900
'0:03.618',-7.700
'0:03.619',-6.600
'0:03.620',-5.500
'0:03.621',-4.400
'0:03.622',-3.400
'0:03.623',-2.500
'0:03.624',-1.700
'0:03.625',-1.000
'0:03.626',-0.600
'0:03.627',-0.400
'0:03.628',-0.400
'0:03.629',-0.200
'0:03.630',0.200
'0:03.631',0.900
'0:03.632',1.500
'0:03.633',2.100
'0:03.634',2.300
'0:03.635',2.400
'0:03.636',2.400
'0:03.637',2.600
'0:03.638',2.900
'0:03.639',3.300
'0:03.640',3.800
'0:03.641',4.200
'0:03.642',4.600
'0:03.643',4.700
'0:03.644',4.600
'0:03.645',4.200
'0:03.646',3.600
'0:03.647',2.900
'0:03.648',2.300
'0:03.649',1.900
'0:03.650',1.700
'0:03.651',1.600
'0:03.652',1.600
'0:03.653',1.700
'0:03.654',2.200
'0:03.655',2.700
'0:03.656',3.100
'0:03.657',3.100
'0:03.658',2.800
'0:03.659',2.400
'0:03.660',2.200
'0:03.661',2.500
'0:03.662',3.200
'0:03.663',4.000
'0:03.664',4.500
'0:03.665',4.400
'0:03.666',3.800
'0:03.667',3.200
'0:03.668',2.900
'0:03.669',3.000
'0:03.670',3.500
'0:03.671',4.200
'0:03.672',4.800
'0:03.673',5.100
'0:03.674',5.100
'0:03.675',4.800
'0:03.676',4.100
'0:03.677',3.200
'0:03.678',2.200
'0:03.679',1.500
'0:03.680',1.300
'0:03.681',1.600
'0:03.682',2.600
'0:03.683',3.700
'0:03.684',4.700
'0:03.685',5.300
'0:03.686',5.400
'0:03.687',4.900
'0:03.688',4.300
'0:03.689',3.800
'0:03.690',3.800
'0:03.691',4.300
'0:03.692',5.400
'0:03.693',6.700
'0:03.694',7.900
'0:03.695',8.600
'0:03.696',8.900
'0:03.697',8.600
'0:03.698',8.100
'0:03.699',7.500
'0:03.700',6.800
'0:03.701',6.000
'0:03.702',5.200
'0:03.703',4.300
'0:03.704',3.600
'0:03.705',3.100
'0:03.706',3.000
'0:03.707',3.200
'0:03.708',3.500
'0:03.709',3.800
'0:03.710',4.000
'0:03.711',4.100
'0:03.712',4.100
'0:03.713',4.000
'0:03.714',4.000
'0:03.715',4.100
'0:03.716',4.400
'0:03.717',4.800
'0:03.718',5.200
'0:03.719',5.300
'0:03.720',5.000
'0:03.721',4.300
'0:03.722',3.800
'0:03.723',3.700
'0:03.724',4.200
'0:03.725',5.100
'0:03.726',5.800
'0:03.727',6.000
'0:03.728',5.600
'0:03.729',4.900
'0:03.730',4.300
'0:03.731',4.100
'0:03.732',4.400
'0:03.733',4.900
'0:03.734',5.100
'0:03.735',5.100
'0:03.736',4.700
'0:03.737',4.200
'0:03.738',4.000
'0:03.739',3.900
'0:03.740',4.200
'0:03.741',4.600
'0:03.742',5.200
'0:03.743',6.000
'0:03.744',7.000
'0:03.745',7.800
'0:03.746',8.100
'0:03.747',7.800
'0:03.748',7.000
'0:03.749',5.900
'0:03.750',5.100
'0:03.751',4.700
'0:03.752',4.700
'0:03.753',4.900
'0:03.754',4.900
'0:03.755',4.700
'0:03.756',4.500
'0:03.757',4.500
'0:03.758',4.700
'0:03.759',4.900
'0:03.760',5.000
'0:03.761',4.900
'0:03.762',4.900
'0:03.763',5.100
'0:03.764',5.700
'0:03.765',6.700
'0:03.766',7.600
'0:03.767',8.100
'0:03.768',8.100
'0:03.769',7.900
'0:03.770',7.800
'0:03.771',8.000
'0:03.772',8.300
'0:03.773',8.200
'0:03.774',7.400
'0:03.775',6.100
'0:03.776',4.600
'0:03.777',3.500
'0:03.778',3.500
'0:03.779',4.500
'0:03.780',6.100
'0:03.781',7.700
'0:03.782',8.600
'0:03.783',8.600
'0:03.784',7.800
'0:03.785',6.900
'0:03.786',6.400
'0:03.787',6.700
'0:03.788',7.500
'0:03.789',8.500
'0:03.790',9.000
'0:03.791',8.800
'0:03.792',7.800
'0:03.793',6.400
'0:03.794',5.200
'0:03.795',4.600
'0:03.796',4.600
'0:03.797',5.100
'0:03.798',5.800
'0:03.799',6.200
'0:03.800',6.300
'0:03.801',6.000
'0:03.802',5.400
'0:03.803',4.800
'0:03.804',4.300
'0:03.805',4.100
'0:03.806',4.400
'0:03.807',5.000
'0:03.808',5.700
'0:03.809',6.200
'0:03.810',6.400
'0:03.811',6.500
'0:03.812',6.700
'0:03.813',7.100
'0:03.814',7.600
'0:03.815',7.900
'0:03.816',7.600
'0:03.817',6.500
'0:03.818',4.900
'0:03.819',3.400
'0:03.820',2.400
'0:03.821',2.200
'0:03.822',2.600
'0:03.823',3.100
'0:03.824',3.200
'0:03.825',2.900
'0:03.826',2.300
'0:03.827',2.100
'0:03.828',2.500
'0:03.829',3.800
'0:03.830',5.300
'0:03.831',6.700
'0:03.832',7.400
'0:03.833',7.200
'0:03.834',6.400
'0:03.835',5.600
'0:03.836',5.100
'0:03.837',5.300
'0:03.838',5.800
'0:03.839',6.300
'0:03.840',6.500
'0:03.841',6.200
'0:03.842',5.700
'0:03.843',5.500
'0:03.844',5.700
'0:03.845',6.400
'0:03.846',7.400
'0:03.847',8.100
'0:03.848',8.400
'0:03.849',8.000
'0:03.850',7.100
'0:03.851',6.000
'0:03.852',5.200
'0:03.853',4.800
'0:03.854',5.000
'0:03.855',5.500
'0:03.856',6.100
'0:03.857',6.600
'0:03.858',6.900
'0:03.859',7.000
'0:03.860',6.800
'0:03.861',6.600
'0:03.862',6.400
'0:03.863',6.200
'0:03.864',6.000
'0:03.865',5.800
'0:03.866',5.600
'0:03.867',5.500
'0:03.868',5.500
'0:03.869',5.600
'0:03.870',5.600
'0:03.871',5.400
'0:03.872',5.000
'0:03.873',4.400
'0:03.874',4.100
'0:03.875',4.200
'0:03.876',4.600
'0:03.877',5.300
'0:03.878',5.700
'0:03.879',5.800
'0:03.880',5.400
'0:03.881',4.900
'0:03.882',4.600
'0:03.883',4.600
'0:03.884',4.700
'0:03.885',4.700
'0:03.886',4.400
'0:03.887',4.100
'0:03.888',3.900
'0:03.889',4.200
'0:03.890',4.800
'0:03.891',5.500
'0:03.892',5.800
'0:03.893',5.300
'0:03.894',4.200
'0:03.895',2.900
'0:03.896',2.000
'0:03.897',1.700
'0:03.898',1.900
'0:03.899',2.300
'0:03.900',2.400
'0:03.901',2.000
'0:03.902',1.300
'0:03.903',0.800
'0:03.904',0.600
'0:03.905',0.900
'0:03.906',1.500
'0:03.907',2.100
'0:03.908',2.700
'0:03.909',3.400
'0:03.910',4.600
'0:03.911',6.700
'0:03.912',9.800
'0:03.913',13.600
'0:03.914',17.800
'0:03.915',21.400
'0:03.916',23.700
'0:03.917',24.400
'0:03.918',23.400
'0:03.919',21.300
'0:03.920',18.800
'0:03.921',16.300
'0:03.922',13.900
'0:03.923',11.400
'0:03.924',8.400
'0:03.925',5.100
'0:03.926',1.600
'0:03.927',-1.200
'0:03.928',-2.900
'0:03.929',-3.500
'0:03.930',-3.100
'0:03.931',-2.500
'0:03.932',-2.000
'0:03.933',-1.800
'0:03.934',-1.800
'0:03.935',-1.800
'0:03.936',-1.500
'0:03.937',-1.000
'0:03.938',-0.300
'0:03.939',0.500
'0:03.940',1.200
'0:03.941',1.800
'0:03.942',2.100
'0:03.943',2.000
'0:03.944',1.700
'0:03.945',1.300
'0:03.946',1.100
'0:03.947',1.200
'0:03.948',1.700
'0:03.949',2.300
'0:03.950',2.600
'0:03.951',2.400
'0:03.952',1.900
'0:03.953',1.100
'0:03.954',0.600
'0:03.955',0.500
'0:03.956',0.800
'0:03.957',1.300
'0:03.958',1.600
'0:03.959',1.600
'0:03.960',1.200
'0:03.961',0.800
'0:03.962',0.600
'0:03.963',1.000
'0:03.964',1.800
'0:03.965',2.800
'0:03.966',3.500
'0:03.967',3.600
'0:03.968',3.200
'0:03.969',2.500
'0:03.970',2.000
'0:03.971',1.900
'0:03.972',2.300
'0:03.973',2.900
'0:03.974',3.500
'0:03.975',3.800
'0:03.976',3.600
'0:03.977',3.000
'0:03.978',2.200
'0:03.979',1.600
'0:03.980',1.500
'0:03.981',2.000
'0:03.982',2.900
'0:03.983',3.900
'0:03.984',4.500
'0:03.985',4.600
'0:03.986',4.200
'0:03.987',3.800
'0:03.988',3.800
'0:03.989',4.100
'0:03.990',4.700
'0:03.991',5.100
'0:03.992',5.000
'0:03.993',4.300
'0:03.994',3.400
'0:03.995',2.400
'0:03.996',1.600
'0:03.997',1.000
'0:03.998',0.400
'0:03.999',-0.200
'0:04.000',-0.700
'0:04.001',-0.800
'0:04.002',-0.500
'0:04.003',0.100
'0:04.004',0.800
'0:04.005',1.300
'0:04.006',1.500
'0:04.007',1.600
'0:04.008',1.700
'0:04.009',1.900
'0:04.010',2.200
'0:04.011',2.400
'0:04.012',2.300
'0:04.013',1.900
'0:04.014',1.500
'0:04.015',1.300
'0:04.016',1.300
'0:04.017',1.400
'0:04.018',1.400
'0:04.019',1.200
'0:04.020',1.100
'0:04.021',1.200
'0:04.022',1.600
'0:04.023',2.300
'0:04.024',2.900
'0:04.025',3.000
'0:04.026',2.400
'0:04.027',1.400
'0:04.028',0.400
'0:04.029',-0.200
'0:04.030',-0.100
'0:04.031',0.300
'0:04.032',0.600
'0:04.033',0.800
'0:04.034',0.900
'0:04.035',1.000
'0:04.036',1.500
'0:04.037',2.100
'0:04.038',2.800
'0:04.039',3.000
'0:04.040',2.800
'0:04.041',2.400
'0:04.042',2.200
'0:04.043',2.400
'0:04.044',3.000
'0:04.045',3.500
'0:04.046',3.600
'0:04.047',3.200
'0:04.048',2.300
'0:04.049',1.300
'0:04.050',0.600
'0:04.051',0.200
'0:04.052',0.200
'0:04.053',0.200
'0:04.054',0.300
'0:04.055',0.400
'0:04.056',0.700
'0:04.057',1.400
'0:04.058',2.300
'0:04.059',3.200
'0:04.060',4.000
'0:04.061',4.200
'0:04.062',4.000
'0:04.063',3.400
'0:04.064',2.800
'0:04.065',2.400
'0:04.066',2.500
'0:04.067',2.900
'0:04.068',3.500
'0:04.069',3.900
'0:04.070',3.900
'0:04.071',3.200
'0:04.072',2.000
'0:04.073',0.800
'0:04.074',-0.200
'0:04.075',-0.500
'0:04.076',-0.400
'0:04.077',0.000
'0:04.078',0.000
'0:04.079',-0.500
'0:04.080',-1.600
'0:04.081',-2.800
'0:04.082',-3.600
'0:04.083',-3.800
'0:04.084',-3.300
'0:04.085',-2.400
'0:04.086',-1.700
'0:04.087',-1.300
'0:04.088',-1.200
'0:04.089',-1.300
'0:04.090',-1.100
'0:04.091',-0.800
'0:04.092',-0.400
'0:04.093',-0.300
'0:04.094',-0.700
'0:04.095',-1.500
'0:04.096',-2.300
'0:04.097',-2.700
'0:04.098',-2.400
'0:04.099',-1.500
'0:04.100',-0.400
'0:04.101',0.500
'0:04.102',1.000
'0:04.103',1.100
'0:04.104',1.200
'0:04.105',1.300
'0:04.106',1.800
'0:04.107',2.300
'0:04.108',2.800
'0:04.109',2.900
'0:04.110',2.700
'0:04.111',2.300
'0:04.112',1.900
'0:04.113',1.700
'0:04.114',1.500
'0:04.115',1.200
'0:04.116',0.700
'0:04.117',0.000
'0:04.118',-0.500
'0:04.119',-0.800
'0:04.120',-0.500
'0:04.121',0.000
'0:04.122',0.500
'0:04.123',0.800
'0:04.124',0.700
'0:04.125',0.200
'0:04.126',-0.400
'0:04.127',-1.100
'0:04.128',-1.800
'0:04.129',-2.300
'0:04.130',-2.400
'0:04.131',-2.000
'0:04.132',-1.300
'0:04.133',-0.600
'0:04.134',-0.200
'0:04.135',-0.400
'0:04.136',-0.900
'0:04.137',-1.300
'0:04.138',-1.300
'0:04.139',-0.900
'0:04.140',-0.300
'0:04.141',0.200
'0:04.142',0.200
'0:04.143',-0.100
'0:04.144',-0.600
'0:04.145',-1.200
'0:04.146',-1.600
'0:04.147',-1.900
'0:04.148',-2.300
'0:04.149',-2.700
'0:04.150',-3.100
'0:04.151',-3.600
'0:04.152',-4.100
'0:04.153',-4.500
'0:04.154',-5.000
'0:04.155',-5.200
'0:04.156',-4.900
'0:04.157',-4.200
'0:04.158',-2.900
'0:04.159',-1.600
'0:04.160',-0.800
'0:04.161',-0.700
'0:04.162',-1.500
'0:04.163',-2.800
'0:04.164',-4.300
'0:04.165',-5.500
'0:04.166',-6.200
'0:04.167',-6.500
'0:04.168',-6.600
'0:04.169',-6.700
'0:04.170',-6.700
'0:04.171',-6.400
'0:04.172',-5.600
'0:04.173',-4.200
'0:04.174',-2.500
'0:04.175',-0.900
'0:04.176',0.200
'0:04.177',0.500
'0:04.178',0.300
'0:04.179',-0.300
'0:04.180',-0.600
'0:04.181',-0.600
'0:04.182',-0.100
'0:04.183',0.500
'0:04.184',1.100
'0:04.185',1.400
'0:04.186',1.300
'0:04.187',1.300
'0:04.188',1.400
'0:04.189',1.800
'0:04.190',2.300
'0:04.191',2.800
'0:04.192',2.900
'0:04.193',2.400
'0:04.194',1.400
'0:04.195',0.400
'0:04.196',-0.300
'0:04.197',-0.300
'0:04.198',0.300
'0:04.199',1.300
'0:04.200',2.200
'0:04.201',2.700
'0:04.202',2.700
'0:04.203',2.400
'0:04.204',1.800
'0:04.205',1.300
'0:04.206',0.800
'0:04.207',0.200
'0:04.208',-0.400
'0:04.209',-1.300
'0:04.210',-2.200
'0:04.211',-3.100
'0:04.212',-3.700
'0:04.213',-3.900
'0:04.214',-3.700
'0:04.215',-3.100
'0:04.216',-2.400
'0:04.217',-1.800
'0:04.218',-1.200
'0:04.219',-0.900
'0:04.220',-0.600
'0:04.221',-0.600
'0:04.222',-0.800
'0:04.223',-1.100
'0:04.224',-1.700
'0:04.225',-2.300
'0:04.226',-2.700
'0:04.227',-2.700
'0:04.228',-2.300
'0:04.229',-1.500
'0:04.230',-0.600
'0:04.231',0.200
'0:04.232',0.800
'0:04.233',1.000
'0:04.234',1.100
'0:04.235',1.000
'0:04.236',0.700
'0:04.237',0.400
'0:04.238',0.100
'0:04.239',-0.200
'0:04.240',-0.500
'0:04.241',-0.700
'0:04.242',-0.900
'0:04.243',-1.200
'0:04.244',-1.300
'0:04.245',-1.000
'0:04.246',-0.200
'0:04.247',1.400
'0:04.248',3.700
'0:04.249',6.500
'0:04.250',9.200
'0:04.251',11.600
'0:04.252',13.400
'0:04.253',14.600
'0:04.254',15.700
'0:04.255',16.900
'0:04.256',18.200
'0:04.257',19.700
'0:04.258',20.800
'0:04.259',21.500
'0:04.260',21.600
'0:04.261',21.300
'0:04.262',20.900
'0:04.263',20.500
'0:04.264',20.300
'0:04.265',20.000
'0:04.266',19.200
'0:04.267',18.100
'0:04.268',16.600
'0:04.269',14.800
'0:04.270',13.100
'0:04.271',11.200
'0:04.272',9.200
'0:04.273',6.800
'0:04.274',4.000
'0:04.275',1.100
'0:04.276',-1.700
'0:04.277',-3.800
'0:04.278',-4.900
'0:04.279',-4.900
'0:04.280',-4.100
'0:04.281',-2.900
'0:04.282',-2.000
'0:04.283',-2.100
'0:04.284',-3.200
'0:04.285',-5.400
'0:04.286',-8.200
'0:04.287',-11.000
'0:04.288',-13.500
'0:04.289',-15.700
'0:04.290',-17.600
'0:04.291',-19.300
'0:04.292',-20.700
'0:04.293',-21.800
'0:04.294',-22.300
'0:04.295',-22.000
'0:04.296',-21.100
'0:04.297',-19.900
'0:04.298',-18.900
'0:04.299',-18.400
'0:04.300',-18.600
'0:04.301',-19.200
'0:04.302',-19.900
'0:04.303',-20.300
'0:04.304',-20.000
'0:04.305',-19.000
'0:04.306',-17.600
'0:04.307',-16.000
'0:04.308',-14.600
'0:04.309',-13.500
'0:04.310',-12.700
'0:04.311',-12.000
'0:04.312',-11.400
'0:04.313',-10.800
'0:04.314',-10.400
'0:04.315',-10.000
'0:04.316',-9.500
'0:04.317',-8.700
'0:04.318',-7.300
'0:04.319',-5.600
'0:04.320',-3.700
'0:04.321',-2.200
'0:04.322',-1.200
'0:04.323',-0.700
'0:04.324',-0.200
'0:04.325',0.500
'0:04.326',1.600
'0:04.327',3.000
'0:04.328',4.000
'0:04.329',4.300
'0:04.330',3.800
'0:04.331',2.900
'0:04.332',1.900
'0:04.333',1.300
'0:04.334',1.000
'0:04.335',1.000
'0:04.336',0.900
'0:04.337',0.700
'0:04.338',0.300
'0:04.339',0.000
'0:04.340',-0.100
'0:04.341',0.100
'0:04.342',0.200
'0:04.343',0.100
'0:04.344',-0.300
'0:04.345',-1.000
'0:04.346',-1.500
'0:04.347',-1.600
'0:04.348',-1.200
'0:04.349',-0.600
'0:04.350',-0.200
'0:04.351',-0.300
'0:04.352',-1.000
'0:04.353',-2.000
'0:04.354',-2.800
'0:04.355',-3.000
'0:04.356',-2.400
'0:04.357',-1.300
'0:04.358',0.000
'0:04.359',1.100
'0:04.360',1.600
'0:04.361',1.600
'0:04.362',1.400
'0:04.363',1.100
'0:04.364',0.800
'0:04.365',0.800
'0:04.366',0.700
'0:04.367',0.600
'0:04.368',0.300
'0:04.369',-0.100
'0:04.370',-0.400
'0:04.371',-0.600
'0:04.372',-0.700
'0:04.373',-0.400
'0:04.374',0.100
'0:04.375',0.800
'0:04.376',1.900
'0:04.377',3.100
'0:04.378',4.400
'0:04.379',5.800
'0:04.380',7.600
'0:04.381',9.900
'0:04.382',12.700
'0:04.383',15.800
'0:04.384',18.500
'0:04.385',20.300
'0:04.386',20.400
'0:04.387',18.900
'0:04.388',16.300
'0:04.389',13.500
'0:04.390',11.300
'0:04.391',9.900
'0:04.392',9.000
'0:04.393',8.000
'0:04.394',6.100
'0:04.395',3.400
'0:04.396',0.200
'0:04.397',-2.600
'0:04.398',-4.600
'0:04.399',-5.400
'0:04.400',-5.400
'0:04.401',-4.800
'0:04.402',-4.100
'0:04.403',-3.300
'0:04.404',-2.300
'0:04.405',-0.900
'0:04.406',0.700
'0:04.407',2.200
'0:04.408',3.300
'0:04.409',3.700
'0:04.410',3.400
'0:04.411',2.600
'0:04.412',1.800
'0:04.413',1.100
'0:04.414',1.000
'0:04.415',1.300
'0:04.416',2.000
'0:04.417',2.900
'0:04.418',3.700
'0:04.419',4.000
'0:04.420',3.700
'0:04.421',2.800
'0:04.422',1.800
'0:04.423',1.100
'0:04.424',0.900
'0:04.425',1.500
'0:04.426',2.400
'0:04.427',3.300
'0:04.428',3.800
'0:04.429',3.700
'0:04.430',3.300
'0:04.431',2.700
'0:04.432',2.300
'0:04.433',2.200
'0:04.434',2.100
'0:04.435',2.000
'0:04.436',1.900
'0:04.437',1.900
'0:04.438',2.200
'0:04.439',2.900
'0:04.440',3.900
'0:04.441',4.800
'0:04.442',5.300
'0:04.443',5.300
'0:04.444',5.000
'0:04.445',4.500
'0:04.446',4.200
'0:04.447',4.100
'0:04.448',4.200
'0:04.449',4.300
'0:04.450',4.200
'0:04.451',3.900
'0:04.452',3.500
'0:04.453',3.100
'0:04.454',2.900
'0:04.455',3.000
'0:04.456',3.300
'0:04.457',3.700
'0:04.458',3.900
'0:04.459',4.000
'0:04.460',3.700
'0:04.461',3.200
'0:04.462',2.700
'0:04.463',2.400
'0:04.464',2.400
'0:04.465',2.700
'0:04.466',3.100
'0:04.467',3.500
'0:04.468',3.600
'0:04.469',3.700
'0:04.470',3.600
'0:04.471',3.700
'0:04.472',4.000
'0:04.473',4.300
'0:04.474',4.500
'0:04.475',4.500
'0:04.476',4.300
'0:04.477',4.100
'0:04.478',3.900
'0:04.479',3.900
'0:04.480',4.000
'0:04.481',4.000
'0:04.482',3.900
'0:04.483',4.000
'0:04.484',4.200
'0:04.485',4.600
'0:04.486',5.300
'0:04.487',6.100
'0:04.488',6.600
'0:04.489',6.800
'0:04.490',6.800
'0:04.491',6.800
'0:04.492',6.700
'0:04.493',6.800
'0:04.494',6.800
'0:04.495',6.500
'0:04.496',5.900
'0:04.497',4.800
'0:04.498',3.600
'0:04.499',2.400
'0:04.500',1.700
'0:04.501',1.500
'0:04.502',1.600
'0:04.503',2.100
'0:04.504',2.400
'0:04.505',2.600
'0:04.506',2.700
'0:04.507',2.800
'0:04.508',3.100
'0:04.509',3.800
'0:04.510',4.700
'0:04.511',5.600
'0:04.512',6.200
'0:04.513',6.100
'0:04.514',5.500
'0:04.515',4.400
'0:04.516',3.500
'0:04.517',2.800
'0:04.518',2.800
'0:04.519',3.200
'0:04.520',4.000
'0:04.521',4.900
'0:04.522',5.700
'0:04.523',6.400
'0:04.524',6.800
'0:04.525',7.000
'0:04.526',6.900
'0:04.527',6.400
'0:04.528',5.800
'0:04.529',5.000
'0:04.530',4.400
'0:04.531',4.000
'0:04.532',4.000
'0:04.533',4.100
'0:04.534',4.100
'0:04.535',4.100
'0:04.536',4.200
'0:04.537',4.500
'0:04.538',5.200
'0:04.539',6.000
'0:04.540',6.700
'0:04.541',6.800
'0:04.542',6.200
'0:04.543',5.200
'0:04.544',4.300
'0:04.545',3.900
'0:04.546',4.100
'0:04.547',4.400
'0:04.548',4.500
'0:04.549',4.100
'0:04.550',3.400
'0:04.551',3.000
'0:04.552',3.200
'0:04.553',4.000
'0:04.554',5.000
'0:04.555',5.800
'0:04.556',5.800
'0:04.557',5.300
'0:04.558',4.600
'0:04.559',4.100
'0:04.560',4.100
'0:04.561',4.300
'0:04.562',4.400
'0:04.563',4.200
'0:04.564',3.500
'0:04.565',2.800
'0:04.566',2.400
'0:04.567',2.600
'0:04.568',3.700
'0:04.569',5.100
'0:04.570',6.600
'0:04.571',7.400
'0:04.572',7.400
'0:04.573',6.600
'0:04.574',5.400
'0:04.575',4.400
'0:04.576',3.700
'0:04.577',3.500
'0:04.578',3.500
'0:04.579',3.400
'0:04.580',3.100
'0:04.581',2.600
'0:04.582',2.300
'0:04.583',2.100
'0:04.584',1.900
'0:04.585',1.700
'0:04.586',1.100
'0:04.587',0.300
'0:04.588',-0.700
'0:04.589',-1.700
'0:04.590',-2.400
'0:04.591',-2.800
'0:04.592',-2.900
'0:04.593',-2.700
'0:04.594',-2.400
'0:04.595',-2.000
'0:04.596',-1.600
'0:04.597',-1.600
'0:04.598',-2.100
'0:04.599',-3.000
'0:04.600',-4.100
'0:04.601',-5.000
'0:04.602',-5.400
'0:04.603',-5.200
'0:04.604',-4.600
'0:04.605',-3.900
'0:04.606',-3.300
'0:04.607',-3.300
'0:04.608',-3.500
'0:04.609',-4.000
'0:04.610',-4.400
'0:04.611',-4.600
'0:04.612',-4.700
'0:04.613',-4.600
'0:04.614',-4.600
'0:04.615',-4.600
'0:04.616',-4.700
'0:04.617',-4.600
'0:04.618',-4.400
'0:04.619',-4.000
'0:04.620',-3.500
'0:04.621',-3.000
'0:04.622',-2.600
'0:04.623',-2.400
'0:04.624',-2.400
'0:04.625',-2.400
'0:04.626',-2.400
'0:04.627',-2.300
'0:04.628',-2.200
'0:04.629',-2.100
'0:04.630',-2.300
'0:04.631',-2.500
'0:04.632',-2.800
'0:04.633',-3.000
'0:04.634',-3.100
'0:04.635',-3.100
'0:04.636',-3.000
'0:04.637',-3.000
'0:04.638',-3.000
'0:04.639',-2.900
'0:04.640',-2.600
'0:04.641',-2.100
'0:04.642',-1.600
'0:04.643',-1.200
'0:04.644',-1.000
'0:04.645',-1.200
'0:04.646',-1.600
'0:04.647',-2.000
'0:04.648',-2.300
'0:04.649',-2.400
'0:04.650',-2.200
'0:04.651',-1.800
'0:04.652',-1.300
'0:04.653',-0.900
'0:04.654',-0.600
'0:04.655',-0.500
'0:04.656',-0.500
'0:04.657',-0.700
'0:04.658',-0.800
'0:04.659',-1.000
'0:04.660',-1.200
'0:04.661',-1.200
'0:04.662',-0.800
'0:04.663',-0.200
'0:04.664',0.700
'0:04.665',1.400
'0:04.666',1.600
'0:04.667',1.200
'0:04.668',0.300
'0:04.669',-0.800
'0:04.670',-1.600
'0:04.671',-1.900
'0:04.672',-1.600
'0:04.673',-1.200
'0:04.674',-0.800
'0:04.675',-0.700
'0:04.676',-0.600
'0:04.677',-0.700
'0:04.678',-0.800
'0:04.679',-1.200
'0:04.680',-1.800
'0:04.681',-2.600
'0:04.682',-3.400
'0:04.683',-3.900
'0:04.684',-4.000
'0:04.685',-3.800
'0:04.686',-3.500
'0:04.687',-3.200
'0:04.688',-3.000
'0:04.689',-2.600
'0:04.690',-1.900
'0:04.691',-1.000
'0:04.692',0.000
'0:04.693',0.800
'0:04.694',1.300
'0:04.695',1.700
'0:04.696',1.800
'0:04.697',1.800
'0:04.698',1.400
'0:04.699',0.700
'0:04.700',-0.400
'0:04.701',-1.800
'0:04.702',-3.000
'0:04.703',-4.000
'0:04.704',-4.700
'0:04.705',-5.300
'0:04.706',-5.900
'0:04.707',-6.300
'0:04.708',-6.400
'0:04.709',-5.800
'0:04.710',-4.600
'0:04.711',-3.100
'0:04.712',-1.600
'0:04.713',-0.500
'0:04.714',0.100
'0:04.715',0.200
'0:04.716',0.200
'0:04.717',0.400
'0:04.718',0.800
'0:04.719',1.300
'0:04.720',1.600
'0:04.721',1.400
'0:04.722',0.800
'0:04.723',-0.200
'0:04.724',-1.400
'0:04.725',-2.400
'0:04.726',-3.000
'0:04.727',-3.100
'0:04.728',-2.800
'0:04.729',-2.400
'0:04.730',-1.900
'0:04.731',-1.700
'0:04.732',-1.500
'0:04.733',-1.600
'0:04.734',-1.900
'0:04.735',-2.500
'0:04.736',-3.200
'0:04.737',-4.000
'0:04.738',-4.700
'0:04.739',-5.100
'0:04.740',-5.000
'0:04.741',-4.700
'0:04.742',-4.400
'0:04.743',-4.300
'0:04.744',-4.300
'0:04.745',-4.200
'0:04.746',-3.800
'0:04.747',-3.200
'0:04.748',-2.500
'0:04.749',-2.100
'0:04.750',-2.000
'0:04.751',-2.200
'0:04.752',-2.400
'0:04.753',-2.400
'0:04.754',-2.000
'0:04.755',-1.500
'0:04.756',-1.100
'0:04.757',-1.200
'0:04.758',-1.900
'0:04.759',-2.800
'0:04.760',-3.500
'0:04.761',-3.800
'0:04.762',-3.600
'0:04.763',-3.200
'0:04.764',-2.900
'0:04.765',-3.000
'0:04.766',-3.700
'0:04.767',-4.700
'0:04.768',-5.700
'0:04.769',-6.600
'0:04.770',-7.200
'0:04.771',-7.400
'0:04.772',-7.200
'0:04.773',-6.600
'0:04.774',-5.700
'0:04.775',-4.600
'0:04.776',-3.800
'0:04.777',-3.300
'0:04.778',-3.300
'0:04.779',-3.700
'0:04.780',-4.000
'0:04.781',-4.100
'0:04.782',-3.900
'0:04.783',-3.400
'0:04.784',-3.000
'0:04.785',-2.800
'0:04.786',-2.900
'0:04.787',-2.900
'0:04.788',-2.900
'0:04.789',-2.800
'0:04.790',-2.700
'0:04.791',-2.700
'0:04.792',-2.600
'0:04.793',-2.200
'0:04.794',-1.400
'0:04.795',-0.400
'0:04.796',0.600
'0:04.797',1.100
'0:04.798',0.800
'0:04.799',0.100
'0:04.800',-0.600
'0:04.801',-1.000
'0:04.802',-0.800
'0:04.803',-0.400
'0:04.804',-0.100
'0:04.805',-0.300
'0:04.806',-0.900
'0:04.807',-1.700
'0:04.808',-2.200
'0:04.809',-2.200
'0:04.810',-1.900
'0:04.811',-1.200
'0:04.812',-0.300
'0:04.813',0.700
'0:04.814',1.700
'0:04.815',2.600
'0:04.816',3.100
'0:04.817',2.900
'0:04.818',2.100
'0:04.819',1.000
'0:04.820',0.000
'0:04.821',-0.900
'0:04.822',-1.500
'0:04.823',-1.900
'0:04.824',-2.400
'0:04.825',-2.900
'0:04.826',-3.300
'0:04.827',-3.600
'0:04.828',-3.900
'0:04.829',-4.100
'0:04.830',-4.600
'0:04.831',-5.300
'0:04.832',-6.100
'0:04.833',-6.900
'0:04.834',-7.700
'0:04.835',-8.400
'0:04.836',-9.100
'0:04.837',-9.600
'0:04.838',-9.800
'0:04.839',-9.500
'0:04.840',-8.600
'0:04.841',-7.300
'0:04.842',-5.700
'0:04.843',-4.300
'0:04.844',-3.400
'0:04.845',-2.700
'0:04.846',-2.000
'0:04.847',-0.700
'0:04.848',1.700
'0:04.849',5.100
'0:04.850',9.200
'0:04.851',13.100
'0:04.852',16.000
'0:04.853',17.500
'0:04.854',17.300
'0:04.855',16.100
'0:04.856',14.500
'0:04.857',13.000
'0:04.858',11.700
'0:04.859',10.400
'0:04.860',8.600
'0:04.861',6.000
'0:04.862',2.500
'0:04.863',-1.500
'0:04.864',-5.500
'0:04.865',-8.700
'0:04.866',-10.600
'0:04.867',-11.300
'0:04.868',-11.000
'0:04.869',-10.100
'0:04.870',-9.200
'0:04.871',-8.400
'0:04.872',-7.600
'0:04.873',-6.600
'0:04.874',-5.300
'0:04.875',-3.800
'0:04.876',-2.500
'0:04.877',-1.600
'0:04.878',-1.200
'0:04.879',-1.100
'0:04.880',-1.300
'0:04.881',-1.300
'0:04.882',-1.300
'0:04.883',-1.400
'0:04.884',-1.600
'0:04.885',-1.900
'0:04.886',-2.300
'0:04.887',-2.600
'0:04.888',-2.800
'0:04.889',-3.000
'0:04.890',-3.200
'0:04.891',-3.600
'0:04.892',-4.100
'0:04.893',-4.600
'0:04.894',-5.000
'0:04.895',-5.100
'0:04.896',-5.200
'0:04.897',-5.200
'0:04.898',-5.100
'0:04.899',-5.100
'0:04.900',-5.000
'0:04.901',-4.900
'0:04.902',-4.800
'0:04.903',-4.800
'0:04.904',-4.900
'0:04.905',-5.300
'0:04.906',-5.800
'0:04.907',-6.300
'0:04.908',-6.700
'0:04.909',-6.900
'0:04.910',-6.800
'0:04.911',-6.500
'0:04.912',-5.900
'0:04.913',-5.200
'0:04.914',-4.600
'0:04.915',-4.300
'0:04.916',-4.200
'0:04.917',-4.300
'0:04.918',-4.400
'0:04.919',-4.400
'0:04.920',-4.400
'0:04.921',-4.400
'0:04.922',-4.600
'0:04.923',-4.800
'0:04.924',-4.900
'0:04.925',-4.800
'0:04.926',-4.200
'0:04.927',-3.400
'0:04.928',-2.400
'0:04.929',-1.500
'0:04.930',-0.700
'0:04.931',0.100
'0:04.932',1.200
'0:04.933',2.900
'0:04.934',5.100
'0:04.935',7.600
'0:04.936',9.800
'0:04.937',11.600
'0:04.938',12.900
'0:04.939',13.900
'0:04.940',14.900
'0:04.941',15.900
'0:04.942',17.000
'0:04.943',18.000
'0:04.944',19.000
'0:04.945',19.800
'0:04.946',20.500
'0:04.947',20.900
'0:04.948',21.000
'0:04.949',20.600
'0:04.950',19.500
'0:04.951',18.000
'0:04.952',16.200
'0:04.953',14.300
'0:04.954',12.500
'0:04.955',10.700
'0:04.956',8.600
'0:04.957',6.100
'0:04.958',3.100
'0:04.959',-0.200
'0:04.960',-3.300
'0:04.961',-5.900
'0:04.962',-7.600
'0:04.963',-8.400
'0:04.964',-8.300
'0:04.965',-7.700
'0:04.966',-7.000
'0:04.967',-6.600
'0:04.968',-7.100
'0:04.969',-8.500
'0:04.970',-10.600
'0:04.971',-13.100
'0:04.972',-15.500
'0:04.973',-17.500
'0:04.974',-18.900
'0:04.975',-19.900
'0:04.976',-20.800
'0:04.977',-21.800
'0:04.978',-23.000
'0:04.979',-24.200
'0:04.980',-25.000
'0:04.981',-25.300
'0:04.982',-24.900
'0:04.983',-23.800
'0:04.984',-22.600
'0:04.985',-21.600
'0:04.986',-21.100
'0:04.987',-20.900
'0:04.988',-20.900
'0:04.989',-20.600
'0:04.990',-19.800
'0:04.991',-18.700
'0:04.992',-17.400
'0:04.993',-16.200
'0:04.994',-15.000
'0:04.995',-13.700
'0:04.996',-12.200
'0:04.997',-10.500
'0:04.998',-8.800
'0:04.999',-7.600
'0:05.000',-7.000
'0:05.001',-6.800
'0:05.002',-6.800
'0:05.003',-6.500
'0:05.004',-5.800
'0:05.005',-4.700
'0:05.006',-3.800
'0:05.007',-3.200
'0:05.008',-3.100
'0:05.009',-3.300
'0:05.010',-3.400
'0:05.011',-3.200
'0:05.012',-2.600
'0:05.013',-1.800
'0:05.014',-1.200
'0:05.015',-0.900
'0:05.016',-1.100
'0:05.017',-1.500
'0:05.018',-2.000
'0:05.019',-2.200
'0:05.020',-2.100
'0:05.021',-1.800
'0:05.022',-1.400
'0:05.023',-1.400
'0:05.024',-1.800
'0:05.025',-2.700
'0:05.026',-3.900
'0:05.027',-4.900
'0:05.028',-5.500
'0:05.029',-5.400
'0:05.030',-4.700
'0:05.031',-3.800
'0:05.032',-3.100
'0:05.033',-2.800
'0:05.034',-3.100
'0:05.035',-3.500
'0:05.036',-3.800
'0:05.037',-3.700
'0:05.038',-3.400
'0:05.039',-3.000
'0:05.040',-2.900
'0:05.041',-3.100
'0:05.042',-3.300
'0:05.043',-3.400
'0:05.044',-3.100
'0:05.045',-2.700
'0:05.046',-2.400
'0:05.047',-2.500
'0:05.048',-3.000
'0:05.049',-3.600
'0:05.050',-3.900
'0:05.051',-3.600
'0:05.052',-2.500
'0:05.053',-1.200
'0:05.054',-0.200
'0:05.055',0.300
'0:05.056',0.000
'0:05.057',-0.700
'0:05.058',-1.600
'0:05.059',-2.200
'0:05.060',-2.600
'0:05.061',-2.600
'0:05.062',-2.600
'0:05.063',-2.400
'0:05.064',-2.100
'0:05.065',-1.800
'0:05.066',-1.400
'0:05.067',-1.200
'0:05.068',-1.200
'0:05.069',-1.300
'0:05.070',-1.600
'0:05.071',-1.900
'0:05.072',-2.000
'0:05.073',-2.200
'0:05.074',-2.500
'0:05.075',-2.900
'0:05.076',-3.500
'0:05.077',-3.900
'0:05.078',-4.100
'0:05.079',-4.000
'0:05.080',-3.600
'0:05.081',-3.400
'0:05.082',-3.600
'0:05.083',-4.200
'0:05.084',-5.000
'0:05.085',-5.700
'0:05.086',-5.900
'0:05.087',-5.500
'0:05.088',-4.800
'0:05.089',-4.000
'0:05.090',-3.300
'0:05.091',-2.800
'0:05.092',-2.300
'0:05.093',-1.700
'0:05.094',-1.100
'0:05.095',-0.400
'0:05.096',0.200
'0:05.097',0.500
'0:05.098',0.600
'0:05.099',0.500
'0:05.100',0.500
'0:05.101',0.600
'0:05.102',0.800
'0:05.103',0.900
'0:05.104',1.100
'0:05.105',1.300
'0:05.106',1.400
'0:05.107',1.600
'0:05.108',1.700
'0:05.109',1.600
'0:05.110',1.600
'0:05.111',1.700
'0:05.112',2.000
'0:05.113',2.300
'0:05.114',2.400
'0:05.115',2.400
'0:05.116',2.100
'0:05.117',1.800
'0:05.118',1.800
'0:05.119',2.000
'0:05.120',2.400
'0:05.121',2.400
'0:05.122',2.100
'0:05.123',1.500
'0:05.124',1.000
'0:05.125',1.000
'0:05.126',1.400
'0:05.127',2.100
'0:05.128',2.600
'0:05.129',2.600
'0:05.130',2.300
'0:05.131',2.100
'0:05.132',2.100
'0:05.133',2.600
'0:05.134',3.000
'0:05.135',3.100
'0:05.136',2.600
'0:05.137',1.500
'0:05.138',0.500
'0:05.139',0.000
'0:05.140',0.300
'0:05.141',1.300
'0:05.142',2.300
'0:05.143',3.000
'0:05.144',3.200
'0:05.145',3.200
'0:05.146',3.300
'0:05.147',3.900
'0:05.148',4.700
'0:05.149',5.400
'0:05.150',5.700
'0:05.151',5.300
'0:05.152',4.500
'0:05.153',4.000
'0:05.154',4.000
'0:05.155',4.700
'0:05.156',5.500
'0:05.157',6.200
'0:05.158',6.300
'0:05.159',5.800
'0:05.160',5.100
'0:05.161',4.600
'0:05.162',4.400
'0:05.163',4.400
'0:05.164',4.600
'0:05.165',4.400
'0:05.166',3.800
'0:05.167',2.900
'0:05.168',2.000
'0:05.169',1.400
'0:05.170',1.400
'0:05.171',2.100
'0:05.172',3.300
'0:05.173',4.500
'0:05.174',5.400
'0:05.175',5.900
'0:05.176',5.900
'0:05.177',5.700
'0:05.178',5.600
'0:05.179',5.500
'0:05.180',5.500
'0:05.181',5.200
'0:05.182',4.600
'0:05.183',3.800
'0:05.184',2.900
'0:05.185',2.200
'0:05.186',1.900
'0:05.187',2.000
'0:05.188',2.300
'0:05.189',2.700
'0:05.190',3.000
'0:05.191',3.200
'0:05.192',3.100
'0:05.193',3.000
'0:05.194',2.800
'0:05.195',2.700
'0:05.196',2.700
'0:05.197',3.000
'0:05.198',3.500
'0:05.199',4.100
'0:05.200',4.700
'0:05.201',5.100
'0:05.202',5.200
'0:05.203',5.000
'0:05.204',4.700
'0:05.205',4.200
'0:05.206',3.700
'0:05.207',3.300
'0:05.208',3.000
'0:05.209',2.900
'0:05.210',3.000
'0:05.211',3.300
'0:05.212',3.800
'0:05.213',4.400
'0:05.214',4.900
'0:05.215',5.200
'0:05.216',5.300
'0:05.217',5.100
'0:05.218',4.700
'0:05.219',4.400
'0:05.220',4.300
'0:05.221',4.500
'0:05.222',4.800
'0:05.223',5.200
'0:05.224',5.500
'0:05.225',5.900
'0:05.226',6.200
'0:05.227',6.600
'0:05.228',7.000
'0:05.229',7.200
'0:05.230',7.100
'0:05.231',6.400
'0:05.232',5.400
'0:05.233',4.500
'0:05.234',4.100
'0:05.235',4.300
'0:05.236',5.100
'0:05.237',5.900
'0:05.238',6.500
'0:05.239',6.600
'0:05.240',6.500
'0:05.241',6.400
'0:05.242',6.700
'0:05.243',7.200
'0:05.244',7.800
'0:05.245',8.000
'0:05.246',7.500
'0:05.247',6.700
'0:05.248',6.100
'0:05.249',6.000
'0:05.250',6.600
'0:05.251',7.700
'0:05.252',8.800
'0:05.253',9.500
'0:05.254',9.700
'0:05.255',9.600
'0:05.256',9.600
'0:05.257',9.900
'0:05.258',10.400
'0:05.259',10.700
'0:05.260',10.400
'0:05.261',9.500
'0:05.262',8.200
'0:05.263',6.600
'0:05.264',5.200
'0:05.265',3.900
'0:05.266',2.800
'0:05.267',1.600
'0:05.268',0.500
'0:05.269',-0.400
'0:05.270',-0.700
'0:05.271',-0.400
'0:05.272',0.200
'0:05.273',0.800
'0:05.274',1.000
'0:05.275',0.700
'0:05.276',0.200
'0:05.277',-0.300
'0:05.278',-0.500
'0:05.279',-0.400
'0:05.280',-0.300
'0:05.281',-0.400
'0:05.282',-0.600
'0:05.283',-0.800
'0:05.284',-0.900
'0:05.285',-1.000
'0:05.286',-1.000
'0:05.287',-1.200
'0:05.288',-1.500
'0:05.289',-1.700
'0:05.290',-1.400
'0:05.291',-0.700
'0:05.292',0.300
'0:05.293',1.400
'0:05.294',1.900
'0:05.295',1.900
'0:05.296',1.400
'0:05.297',0.800
'0:05.298',0.200
'0:05.299',-0.200
'0:05.300',-0.500
'0:05.301',-0.800
'0:05.302',-1.300
'0:05.303',-1.800
'0:05.304',-2.300
'0:05.305',-2.700
'0:05.306',-2.800
'0:05.307',-2.800
'0:05.308',-2.700
'0:05.309',-2.600
'0:05.310',-2.500
'0:05.311',-2.300
'0:05.312',-1.900
'0:05.313',-1.200
'0:05.314',-0.300
'0:05.315',0.700
'0:05.316',1.700
'0:05.317',2.700
'0:05.318',3.800
'0:05.319',5.600
'0:05.320',8.200
'0:05.321',11.500
'0:05.322',14.900
'0:05.323',17.400
'0:05.324',18.400
'0:05.325',17.500
'0:05.326',15.200
'0:05.327',12.400
'0:05.328',9.700
'0:05.329',7.800
'0:05.330',6.400
'0:05.331',5.000
'0:05.332',3.200
'0:05.333',0.800
'0:05.334',-2.000
'0:05.335',-4.800
'0:05.336',-7.100
'0:05.337',-8.600
'0:05.338',-9.300
'0:05.339',-9.300
'0:05.340',-8.600
'0:05.341',-7.500
'0:05.342',-6.100
'0:05.343',-4.700
'0:05.344',-3.500
'0:05.345',-2.800
'0:05.346',-2.400
'0:05.347',-2.400
'0:05.348',-2.400
'0:05.349',-2.200
'0:05.350',-1.700
'0:05.351',-1.100
'0:05.352',-0.400
'0:05.353',0.100
'0:05.354',0.300
'0:05.355',0.300
'0:05.356',0.200
'0:05.357',0.200
'0:05.358',0.400
'0:05.359',0.600
'0:05.360',0.900
'0:05.361',0.900
'0:05.362',0.700
'0:05.363',0.300
'0:05.364',-0.200
'0:05.365',-0.600
'0:05.366',-1.000
'0:05.367',-1.100
'0:05.368',-1.100
'0:05.369',-0.800
'0:05.370',-0.500
'0:05.371',-0.100
'0:05.372',0.100
'0:05.373',0.100
'0:05.374',0.100
'0:05.375',0.200
'0:05.376',0.400
'0:05.377',0.600
'0:05.378',0.800
'0:05.379',0.800
'0:05.380',0.600
'0:05.381',0.000
'0:05.382',-0.600
'0:05.383',-1.300
'0:05.384',-1.700
'0:05.385',-1.900
'0:05.386',-1.700
'0:05.387',-1.400
'0:05.388',-1.000
'0:05.389',-0.700
'0:05.390',-0.700
'0:05.391',-1.100
'0:05.392',-1.900
'0:05.393',-2.800
'0:05.394',-3.700
'0:05.395',-4.100
'0:05.396',-3.900
'0:05.397',-3.300
'0:05.398',-2.500
'0:05.399',-1.900
'0:05.400',-1.600
'0:05.401',-1.700
'0:05.402',-1.900
'0:05.403',-2.000
'0:05.404',-1.800
'0:05.405',-1.500
'0:05.406',-1.600
'0:05.407',-2.000
'0:05.408',-2.900
'0:05.409',-4.000
'0:05.410',-4.800
'0:05.411',-5.000
'0:05.412',-4.800
'0:05.413',-4.100
'0:05.414',-3.300
'0:05.415',-2.600
'0:05.416',-2.000
'0:05.417',-1.600
'0:05.418',-1.300
'0:05.419',-1.200
'0:05.420',-1.400
'0:05.421',-1.700
'0:05.422',-2.000
'0:05.423',-2.300
'0:05.424',-2.300
'0:05.425',-2.100
'0:05.426',-2.000
'0:05.427',-2.100
'0:05.428',-2.400
'0:05.429',-2.800
'0:05.430',-3.200
'0:05.431',-3.300
'0:05.432',-3.300
'0:05.433',-3.400
'0:05.434',-3.600
'0:05.435',-3.900
'0:05.436',-4.200
'0:05.437',-4.400
'0:05.438',-4.300
'0:05.439',-4.100
'0:05.440',-3.900
'0:05.441',-4.000
'0:05.442',-4.300
'0:05.443',-4.700
'0:05.444',-4.800
'0:05.445',-4.700
'0:05.446',-4.100
'0:05.447',-3.400
'0:05.448',-2.700
'0:05.449',-2.200
'0:05.450',-1.800
'0:05.451',-1.700
'0:05.452',-2.000
'0:05.453',-2.600
'0:05.454',-3.300
'0:05.455',-3.900
'0:05.456',-4.000
'0:05.457',-3.500
'0:05.458',-2.500
'0:05.459',-1.400
'0:05.460',-0.600
'0:05.461',-0.400
'0:05.462',-0.600
'0:05.463',-0.900
'0:05.464',-0.700
'0:05.465',0.100
'0:05.466',1.300
'0:05.467',2.400
'0:05.468',2.700
'0:05.469',2.100
'0:05.470',0.700
'0:05.471',-0.900
'0:05.472',-2.200
'0:05.473',-2.800
'0:05.474',-2.700
'0:05.475',-2.300
'0:05.476',-1.800
'0:05.477',-1.400
'0:05.478',-1.000
'0:05.479',-0.300
'0:05.480',0.600
'0:05.481',1.600
'0:05.482',2.200
'0:05.483',2.300
'0:05.484',1.800
'0:05.485',0.900
'0:05.486',0.200
'0:05.487',-0.200
'0:05.488',-0.200
'0:05.489',0.000
'0:05.490',0.100
'0:05.491',0.200
'0:05.492',0.200
'0:05.493',0.600
'0:05.494',1.500
'0:05.495',2.900
'0:05.496',4.500
'0:05.497',5.500
'0:05.498',5.700
'0:05.499',4.800
'0:05.500',3.200
'0:05.501',1.400
'0:05.502',-0.300
'0:05.503',-1.400
'0:05.504',-2.200
'0:05.505',-2.900
'0:05.506',-3.700
'0:05.507',-4.400
'0:05.508',-4.800
'0:05.509',-4.600
'0:05.510',-3.800
'0:05.511',-2.600
'0:05.512',-1.500
'0:05.513',-0.800
'0:05.514',-0.700
'0:05.515',-1.000
'0:05.516',-1.300
'0:05.517',-1.700
'0:05.518',-2.100
'0:05.519',-2.700
'0:05.520',-3.600
'0:05.521',-4.600
'0:05.522',-5.300
'0:05.523',-5.400
'0:05.524',-5.000
'0:05.525',-4.300
'0:05.526',-3.700
'0:05.527',-3.700
'0:05.528',-4.400
'0:05.529',-5.300
'0:05.530',-6.400
'0:05.531',-7.100
'0:05.532',-7.500
'0:05.533',-7.700
'0:05.534',-7.700
'0:05.535',-7.600
'0:05.536',-7.400
'0:05.537',-6.900
'0:05.538',-6.100
'0:05.539',-5.400
'0:05.540',-5.000
'0:05.541',-5.100
'0:05.542',-5.600
'0:05.543',-6.400
'0:05.544',-6.900
'0:05.545',-7.100
'0:05.546',-6.900
'0:05.547',-6.500
'0:05.548',-6.300
'0:05.549',-6.400
'0:05.550',-6.800
'0:05.551',-7.000
'0:05.552',-6.800
'0:05.553',-5.900
'0:05.554',-4.700
'0:05.555',-3.500
'0:05.556',-2.900
'0:05.557',-3.100
'0:05.558',-3.800
'0:05.559',-4.600
'0:05.560',-5.200
'0:05.561',-5.200
'0:05.562',-4.900
'0:05.563',-4.400
'0:05.564',-4.100
'0:05.565',-4.100
'0:05.566',-4.300
'0:05.567',-4.500
'0:05.568',-4.700
'0:05.569',-4.700
'0:05.570',-4.300
'0:05.571',-3.700
'0:05.572',-3.000
'0:05.573',-2.300
'0:05.574',-1.900
'0:05.575',-1.900
'0:05.576',-2.200
'0:05.577',-2.400
'0:05.578',-2.300
'0:05.579',-1.800
'0:05.580',-1.000
'0:05.581',-0.300
'0:05.582',-0.200
'0:05.583',-0.700
'0:05.584',-1.800
'0:05.585',-2.900
'0:05.586',-3.700
'0:05.587',-4.100
'0:05.588',-4.300
'0:05.589',-4.500
'0:05.590',-5.000
'0:05.591',-5.600
'0:05.592',-6.100
'0:05.593',-6.100
'0:05.594',-5.400
'0:05.595',-4.300
'0:05.596',-3.300
'0:05.597',-2.800
'0:05.598',-2.900
'0:05.599',-3.300
'0:05.600',-3.300
'0:05.601',-2.500
'0:05.602',-1.100
'0:05.603',0.200
'0:05.604',0.700
'0:05.605',0.300
'0:05.606',-0.800
'0:05.607',-1.900
'0:05.608',-2.000
'0:05.609',-1.000
'0:05.610',0.900
'0:05.611',3.100
'0:05.612',5.300
'0:05.613',7.200
'0:05.614',9.100
'0:05.615',11.100
'0:05.616',13.400
'0:05.617',15.700
'0:05.618',17.600
'0:05.619',19.000
'0:05.620',19.700
'0:05.621',20.100
'0:05.622',20.400
'0:05.623',20.700
'0:05.624',21.100
'0:05.625',21.700
'0:05.626',22.100
'0:05.627',22.300
'0:05.628',22.000
'0:05.629',21.100
'0:05.630',19.600
'0:05.631',17.800
'0:05.632',15.900
'0:05.633',14.100
'0:05.634',12.600
'0:05.635',11.100
'0:05.636',9.400
'0:05.637',7.500
'0:05.638',5.400
'0:05.639',3.100
'0:05.640',0.700
'0:05.641',-1.700
'0:05.642',-4.000
'0:05.643',-5.800
'0:05.644',-6.700
'0:05.645',-6.700
'0:05.646',-5.800
'0:05.647',-4.500
'0:05.648',-3.400
'0:05.649',-3.000
'0:05.650',-3.400
'0:05.651',-4.600
'0:05.652',-6.200
'0:05.653',-8.400
'0:05.654',-11.000
'0:05.655',-14.000
'0:05.656',-16.900
'0:05.657',-19.300
'0:05.658',-20.600
'0:05.659',-20.400
'0:05.660',-19.100
'0:05.661',-17.200
'0:05.662',-15.300
'0:05.663',-13.800
'0:05.664',-12.900
'0:05.665',-12.400
'0:05.666',-12.200
'0:05.667',-12.300
'0:05.668',-12.600
'0:05.669',-13.100
'0:05.670',-13.400
'0:05.671',-13.500
'0:05.672',-13.400
'0:05.673',-13.100
'0:05.674',-12.900
'0:05.675',-12.900
'0:05.676',-12.800
'0:05.677',-12.600
'0:05.678',-11.900
'0:05.679',-11.000
'0:05.680',-9.700
'0:05.681',-8.500
'0:05.682',-7.500
'0:05.683',-6.800
'0:05.684',-6.500
'0:05.685',-6.400
'0:05.686',-6.400
'0:05.687',-6.200
'0:05.688',-5.600
'0:05.689',-4.500
'0:05.690',-3.200
'0:05.691',-2.100
'0:05.692',-1.700
'0:05.693',-2.200
'0:05.694',-3.500
'0:05.695',-4.900
'0:05.696',-5.900
'0:05.697',-6.000
'0:05.698',-5.300
'0:05.699',-4.200
'0:05.700',-3.200
'0:05.701',-2.800
'0:05.702',-3.200
'0:05.703',-3.900
'0:05.704',-4.600
'0:05.705',-4.900
'0:05.706',-4.800
'0:05.707',-4.300
'0:05.708',-3.600
'0:05.709',-3.200
'0:05.710',-2.900
'0:05.711',-3.000
'0:05.712',-3.300
'0:05.713',-3.700
'0:05.714',-4.200
'0:05.715',-4.600
'0:05.716',-4.900
'0:05.717',-4.700
'0:05.718',-4.300
'0:05.719',-3.600
'0:05.720',-2.800
'0:05.721',-2.200
'0:05.722',-1.800
'0:05.723',-1.300
'0:05.724',-0.800
'0:05.725',-0.200
'0:05.726',0.500
'0:05.727',1.000
'0:05.728',1.100
'0:05.729',0.900
'0:05.730',0.600
'0:05.731',0.700
'0:05.732',1.400
'0:05.733',2.500
'0:05.734',3.700
'0:05.735',4.700
'0:05.736',5.300
'0:05.737',5.500
'0:05.738',5.700
'0:05.739',5.800
'0:05.740',5.900
'0:05.741',5.700
'0:05.742',5.300
'0:05.743',4.800
'0:05.744',4.600
'0:05.745',5.000
'0:05.746',5.700
'0:05.747',6.400
'0:05.748',6.400
'0:05.749',5.800
'0:05.750',4.700
'0:05.751',3.700
'0:05.752',3.300
'0:05.753',3.500
'0:05.754',4.000
'0:05.755',4.500
'0:05.756',4.500
'0:05.757',4.100
'0:05.758',3.700
'0:05.759',3.300
'0:05.760',3.100
'0:05.761',3.000
'0:05.762',2.900
'0:05.763',2.700
'0:05.764',2.500
'0:05.765',2.500
'0:05.766',2.700
'0:05.767',3.300
'0:05.768',3.900
'0:05.769',4.500
'0:05.770',4.800
'0:05.771',4.800
'0:05.772',4.500
'0:05.773',3.900
'0:05.774',3.200
'0:05.775',2.500
'0:05.776',1.800
'0:05.777',1.200
'0:05.778',0.600
'0:05.779',0.000
'0:05.780',-0.400
'0:05.781',-0.500
'0:05.782',0.000
'0:05.783',0.900
'0:05.784',2.100
'0:05.785',3.300
'0:05.786',4.600
'0:05.787',6.200
'0:05.788',8.300
'0:05.789',11.300
'0:05.790',14.800
'0:05.791',18.200
'0:05.792',20.800
'0:05.793',22.000
'0:05.794',21.500
'0:05.795',19.800
'0:05.796',17.400
'0:05.797',14.700
'0:05.798',11.800
'0:05.799',8.800
'0:05.800',5.400
'0:05.801',1.700
'0:05.802',-1.900
'0:05.803',-5.100
'0:05.804',-7.400
'0:05.805',-8.700
'0:05.806',-8.800
'0:05.807',-8.200
'0:05.808',-7.100
'0:05.809',-6.100
'0:05.810',-5.300
'0:05.811',-4.800
'0:05.812',-4.600
'0:05.813',-4.300
'0:05.814',-3.600
'0:05.815',-2.700
'0:05.816',-1.500
'0:05.817',-0.500
'0:05.818',0.200
'0:05.819',0.600
'0:05.820',0.900
'0:05.821',1.200
'0:05.822',1.600
'0:05.823',2.000
'0:05.824',2.200
'0:05.825',2.300
'0:05.826',2.500
'0:05.827',2.800
'0:05.828',3.400
'0:05.829',4.000
'0:05.830',4.300
'0:05.831',4.200
'0:05.832',3.600
'0:05.833',2.600
'0:05.834',1.600
'0:05.835',0.900
'0:05.836',0.500
'0:05.837',0.400
'0:05.838',0.400
'0:05.839',0.300
'0:05.840',0.000
'0:05.841',-0.600
'0:05.842',-1.300
'0:05.843',-2.000
'0:05.844',-2.400
'0:05.845',-2.300
'0:05.846',-1.700
'0:05.847',-1.000
'0:05.848',-0.500
'0:05.849',-0.200
'0:05.850',-0.300
'0:05.851',-0.400
'0:05.852',-0.200
'0:05.853',0.300
'0:05.854',1.000
'0:05.855',1.600
'0:05.856',2.000
'0:05.857',2.000
'0:05.858',1.800
'0:05.859',1.500
'0:05.860',1.300
'0:05.861',1.300
'0:05.862',1.500
'0:05.863',1.800
'0:05.864',2.400
'0:05.865',3.100
'0:05.866',3.800
'0:05.867',4.500
'0:05.868',5.000
'0:05.869',5.100
'0:05.870',5.000
'0:05.871',4.600
'0:05.872',4.000
'0:05.873',3.200
'0:05.874',2.400
'0:05.875',1.600
'0:05.876',1.100
'0:05.877',0.900
'0:05.878',1.100
'0:05.879',1.400
'0:05.880',1.800
'0:05.881',2.100
'0:05.882',2.200
'0:05.883',2.400
'0:05.884',2.600
'0:05.885',2.800
'0:05.886',2.900
'0:05.887',2.800
'0:05.888',2.500
'0:05.889',2.300
'0:05.890',2.300
'0:05.891',2.600
'0:05.892',3.000
'0:05.893',3.400
'0:05.894',3.700
'0:05.895',3.900
'0:05.896',4.200
'0:05.897',4.600
'0:05.898',5.300
'0:05.899',6.000
'0:05.900',6.500
'0:05.901',6.900
'0:05.902',7.100
'0:05.903',7.100
'0:05.904',7.000
'0:05.905',6.700
'0:05.906',6.400
'0:05.907',6.000
'0:05.908',5.900
'0:05.909',6.000
'0:05.910',6.200
'0:05.911',6.300
'0:05.912',6.200
'0:05.913',5.800
'0:05.914',5.300
'0:05.915',5.200
'0:05.916',5.500
'0:05.917',6.100
'0:05.918',6.800
'0:05.919',7.200
'0:05.920',6.900
'0:05.921',6.100
'0:05.922',5.100
'0:05.923',4.300
'0:05.924',3.900
'0:05.925',4.100
'0:05.926',4.700
'0:05.927',5.300
'0:05.928',5.500
'0:05.929',5.000
'0:05.930',4.000
'0:05.931',2.700
'0:05.932',1.800
'0:05.933',1.600
'0:05.934',1.900
'0:05.935',2.600
'0:05.936',3.100
'0:05.937',3.400
'0:05.938',3.500
'0:05.939',3.400
'0:05.940',3.400
'0:05.941',3.400
'0:05.942',3.300
'0:05.943',3.200
'0:05.944',3.100
'0:05.945',3.200
'0:05.946',3.500
'0:05.947',3.900
'0:05.948',4.000
'0:05.949',3.500
'0:05.950',2.600
'0:05.951',1.600
'0:05.952',0.900
'0:05.953',1.000
'0:05.954',1.800
'0:05.955',3.000
'0:05.956',4.100
'0:05.957',5.000
'0:05.958',5.400
'0:05.959',5.500
'0:05.960',5.300
'0:05.961',4.700
'0:05.962',3.800
'0:05.963',2.600
'0:05.964',1.400
'0:05.965',0.300
'0:05.966',-0.500
'0:05.967',-1.100
'0:05.968',-1.300
'0:05.969',-1.300
'0:05.970',-1.100
'0:05.971',-0.700
'0:05.972',-0.300
'0:05.973',0.000
'0:05.974',0.000
'0:05.975',-0.200
'0:05.976',-0.600
'0:05.977',-0.900
'0:05.978',-0.900
'0:05.979',-0.600
'0:05.980',-0.400
'0:05.981',-0.500
'0:05.982',-1.300
'0:05.983',-2.400
'0:05.984',-3.400
'0:05.985',-3.700
'0:05.986',-3.100
'0:05.987',-1.800
'0:05.988',-0.400
'0:05.989',0.700
'0:05.990',1.000
'0:05.991',0.700
'0:05.992',0.200
'0:05.993',-0.300
'0:05.994',-0.500
'0:05.995',-0.400
'0:05.996',-0.400
'0:05.997',-0.700
'0:05.998',-1.400
'0:05.999',-2.300
'0:06.000',-3.000
'0:06.001',-3.400
'0:06.002',-3.400
'0:06.003',-3.000
'0:06.004',-2.600
'0:06.005',-2.400
'0:06.006',-2.600
'0:06.007',-3.200
'0:06.008',-3.900
'0:06.009',-4.700
'0:06.010',-5.200
'0:06.011',-5.400
'0:06.012',-5.100
'0:06.013',-4.600
'0:06.014',-4.200
'0:06.015',-4.000
'0:06.016',-4.000
'0:06.017',-4.100
'0:06.018',-4.100
'0:06.019',-3.900
'0:06.020',-3.600
'0:06.021',-3.200
'0:06.022',-2.900
'0:06.023',-2.800
'0:06.024',-2.900
'0:06.025',-3.300
'0:06.026',-4.100
'0:06.027',-5.200
'0:06.028',-6.300
'0:06.029',-7.100
'0:06.030',-7.300
'0:06.031',-6.800
'0:06.032',-5.900
'0:06.033',-5.000
'0:06.034',-4.300
'0:06.035',-4.000
'0:06.036',-3.900
'0:06.037',-3.700
'0:06.038',-3.500
'0:06.039',-3.400
'0:06.040',-3.600
'0:06.041',-4.300
'0:06.042',-5.000
'0:06.043',-5.200
'0:06.044',-4.500
'0:06.045',-2.700
'0:06.046',-0.600
'0:06.047',1.300
'0:06.048',2.100
'0:06.049',1.700
'0:06.050',0.400
'0:06.051',-1.100
'0:06.052',-2.100
'0:06.053',-2.400
'0:06.054',-2.100
'0:06.055',-1.600
'0:06.056',-1.300
'0:06.057',-1.600
'0:06.058',-2.200
'0:06.059',-3.100
'0:06.060',-3.800
'0:06.061',-3.900
'0:06.062',-3.300
'0:06.063',-2.200
'0:06.064',-0.900
'0:06.065',-0.100
'0:06.066',-0.100
'0:06.067',-1.000
'0:06.068',-2.500
'0:06.069',-4.000
'0:06.070',-5.200
'0:06.071',-5.900
'0:06.072',-6.100
'0:06.073',-5.800
'0:06.074',-5.400
'0:06.075',-4.700
'0:06.076',-4.000
'0:06.077',-3.200
'0:06.078',-2.700
'0:06.079',-2.500
'0:06.080',-2.800
'0:06.081',-3.500
'0:06.082',-4.200
'0:06.083',-4.600
'0:06.084',-4.500
'0:06.085',-4.100
'0:06.086',-3.600
'0:06.087',-3.300
'0:06.088',-3.500
'0:06.089',-3.900
'0:06.090',-4.500
'0:06.091',-4.800
'0:06.092',-4.900
'0:06.093',-4.800
'0:06.094',-4.700
'0:06.095',-4.700
'0:06.096',-4.800
'0:06.097',-4.900
'0:06.098',-5.000
'0:06.099',-5.000
'0:06.100',-5.000
'0:06.101',-5.300
'0:06.102',-5.800
'0:06.103',-6.100
'0:06.104',-6.100
'0:06.105',-5.700
'0:06.106',-5.000
'0:06.107',-4.100
'0:06.108',-3.400
'0:06.109',-3.000
'0:06.110',-2.600
'0:06.111',-2.100
'0:06.112',-1.300
'0:06.113',-0.500
'0:06.114',0.100
'0:06.115',0.200
'0:06.116',-0.200
'0:06.117',-0.900
'0:06.118',-1.500
'0:06.119',-1.600
'0:06.120',-1.100
'0:06.121',-0.400
'0:06.122',0.300
'0:06.123',0.600
'0:06.124',0.600
'0:06.125',0.300
'0:06.126',0.000
'0:06.127',-0.300
'0:06.128',-0.500
'0:06.129',-0.700
'0:06.130',-0.900
'0:06.131',-0.800
'0:06.132',-0.500
'0:06.133',0.400
'0:06.134',1.600
'0:06.135',3.100
'0:06.136',4.400
'0:06.137',5.300
'0:06.138',5.600
'0:06.139',5.300
'0:06.140',4.600
'0:06.141',3.700
'0:06.142',2.900
'0:06.143',2.300
'0:06.144',2.000
'0:06.145',1.900
'0:06.146',1.800
'0:06.147',1.500
'0:06.148',0.900
'0:06.149',0.200
'0:06.150',-0.500
'0:06.151',-1.100
'0:06.152',-1.400
'0:06.153',-1.600
'0:06.154',-1.700
'0:06.155',-1.900
'0:06.156',-2.400
'0:06.157',-2.900
'0:06.158',-3.600
'0:06.159',-4.400
'0:06.160',-5.200
'0:06.161',-5.800
'0:06.162',-6.300
'0:06.163',-6.500
'0:06.164',-6.400
'0:06.165',-6.200
'0:06.166',-6.100
'0:06.167',-6.300
'0:06.168',-6.700
'0:06.169',-7.400
'0:06.170',-8.200
'0:06.171',-9.000
'0:06.172',-9.500
'0:06.173',-9.700
'0:06.174',-9.500
'0:06.175',-8.900
'0:06.176',-8.100
'0:06.177',-7.300
'0:06.178',-6.800
'0:06.179',-6.600
'0:06.180',-6.900
'0:06.181',-7.400
'0:06.182',-7.800
'0:06.183',-8.000
'0:06.184',-7.800
'0:06.185',-7.600
'0:06.186',-7.500
'0:06.187',-7.700
'0:06.188',-8.200
'0:06.189',-8.700
'0:06.190',-9.100
'0:06.191',-9.100
'0:06.192',-9.100
'0:06.193',-9.100
'0:06.194',-9.200
'0:06.195',-9.400
'0:06.196',-9.400
'0:06.197',-9.000
'0:06.198',-8.400
'0:06.199',-7.600
'0:06.200',-6.700
'0:06.201',-5.800
'0:06.202',-4.900
'0:06.203',-4.100
'0:06.204',-3.400
'0:06.205',-3.100
'0:06.206',-3.100
'0:06.207',-3.500
'0:06.208',-4.000
'0:06.209',-4.300
'0:06.210',-4.500
'0:06.211',-4.600
'0:06.212',-4.700
'0:06.213',-5.100
'0:06.214',-5.500
'0:06.215',-5.900
'0:06.216',-6.100
'0:06.217',-6.100
'0:06.218',-6.000
'0:06.219',-6.000
'0:06.220',-6.100
'0:06.221',-6.100
'0:06.222',-5.900
'0:06.223',-5.400
'0:06.224',-4.600
'0:06.225',-3.600
'0:06.226',-2.700
'0:06.227',-2.200
'0:06.228',-2.400
'0:06.229',-3.200
'0:06.230',-4.200
'0:06.231',-5.000
'0:06.232',-5.400
'0:06.233',-5.100
'0:06.234',-4.600
'0:06.235',-4.100
'0:06.236',-3.900
'0:06.237',-4.000
'0:06.238',-4.300
'0:06.239',-4.400
'0:06.240',-4.300
'0:06.241',-4.100
'0:06.242',-4.100
'0:06.243',-4.500
'0:06.244',-5.200
'0:06.245',-5.900
'0:06.246',-6.200
'0:06.247',-5.800
'0:06.248',-4.900
'0:06.249',-3.600
'0:06.250',-2.400
'0:06.251',-1.300
'0:06.252',-0.100
'0:06.253',1.500
'0:06.254',3.900
'0:06.255',7.100
'0:06.256',10.800
'0:06.257',14.500
'0:06.258',17.400
'0:06.259',19.000
'0:06.260',19.200
'0:06.261',18.100
'0:06.262',16.300
'0:06.263',14.500
'0:06.264',12.800
'0:06.265',11.400
'0:06.266',10.100
'0:06.267',8.500
'0:06.268',6.700
'0:06.269',4.900
'0:06.270',3.700
'0:06.271',3.400
'0:06.272',4.100
'0:06.273',5.500
'0:06.274',7.100
'0:06.275',8.600
'0:06.276',9.800
'0:06.277',11.100
'0:06.278',12.500
'0:06.279',14.100
'0:06.280',15.800
'0:06.281',17.200
'0:06.282',18.100
'0:06.283',18.300
'0:06.284',18.000
'0:06.285',17.300
'0:06.286',16.400
'0:06.287',15.300
'0:06.288',14.000
'0:06.289',12.600
'0:06.290',11.000
'0:06.291',9.200
'0:06.292',7.100
'0:06.293',4.600
'0:06.294',1.700
'0:06.295',-1.100
'0:06.296',-3.400
'0:06.297',-4.700
'0:06.298',-4.900
'0:06.299',-4.200
'0:06.300',-3.200
'0:06.301',-2.200
'0:06.302',-1.700
'0:06.303',-1.800
'0:06.304',-2.400
'0:06.305',-3.400
'0:06.306',-4.800
'0:06.307',-6.800
'0:06.308',-9.100
'0:06.309',-11.600
'0:06.310',-13.800
'0:06.311',-15.400
'0:06.312',-16.400
'0:06.313',-17.000
'0:06.314',-17.400
'0:06.315',-17.800
'0:06.316',-18.000
'0:06.317',-17.600
'0:06.318',-16.100
'0:06.319',-13.900
'0:06.320',-11.600
'0:06.321',-9.900
'0:06.322',-9.300
'0:06.323',-9.700
'0:06.324',-10.500
'0:06.325',-11.200
'0:06.326',-11.200
'0:06.327',-10.800
'0:06.328',-10.500
'0:06.329',-10.600
'0:06.330',-11.100
'0:06.331',-11.700
'0:06.332',-12.000
'0:06.333',-11.600
'0:06.334',-10.700
'0:06.335',-9.400
'0:06.336',-8.200
'0:06.337',-6.900
'0:06.338',-5.800
'0:06.339',-4.600
'0:06.340',-3.700
'0:06.341',-3.000
'0:06.342',-2.800
'0:06.343',-2.600
'0:06.344',-2.300
'0:06.345',-1.700
'0:06.346',-0.900
'0:06.347',-0.300
'0:06.348',-0.300
'0:06.349',-1.000
'0:06.350',-2.300
'0:06.351',-3.600
'0:06.352',-4.500
'0:06.353',-4.900
'0:06.354',-5.100
'0:06.355',-5.100
'0:06.356',-5.000
'0:06.357',-4.700
'0:06.358',-3.700
'0:06.359',-2.100
'0:06.360',-0.200
'0:06.361',1.400
'0:06.362',2.200
'0:06.363',1.800
'0:06.364',0.700
'0:06.365',-0.700
'0:06.366',-1.500
'0:06.367',-1.700
'0:06.368',-1.100
'0:06.369',-0.200
'0:06.370',0.700
'0:06.371',1.300
'0:06.372',1.700
'0:06.373',1.900
'0:06.374',2.000
'0:06.375',2.100
'0:06.376',2.200
'0:06.377',2.200
'0:06.378',2.400
'0:06.379',2.800
'0:06.380',3.500
'0:06.381',4.400
'0:06.382',5.100
'0:06.383',5.400
'0:06.384',5.000
'0:06.385',4.000
'0:06.386',2.600
'0:06.387',1.400
'0:06.388',0.700
'0:06.389',0.800
'0:06.390',1.300
'0:06.391',1.900
'0:06.392',2.400
'0:06.393',2.500
'0:06.394',2.300
'0:06.395',2.000
'0:06.396',1.600
'0:06.397',1.400
'0:06.398',1.200
'0:06.399',1.200
'0:06.400',1.300
'0:06.401',1.800
'0:06.402',2.500
'0:06.403',3.500
'0:06.404',4.400
'0:06.405',5.100
'0:06.406',5.300
'0:06.407',5.100
'0:06.408',4.500
'0:06.409',3.900
'0:06.410',3.600
'0:06.411',3.800
'0:06.412',4.400
'0:06.413',5.300
'0:06.414',5.900
'0:06.415',6.100
'0:06.416',5.800
'0:06.417',5.100
'0:06.418',4.600
'0:06.419',4.600
'0:06.420',5.000
'0:06.421',5.800
'0:06.422',6.600
'0:06.423',7.000
'0:06.424',7.100
'0:06.425',6.900
'0:06.426',6.500
'0:06.427',6.100
'0:06.428',5.600
'0:06.429',5.100
'0:06.430',4.500
'0:06.431',3.900
'0:06.432',3.300
'0:06.433',2.800
'0:06.434',2.200
'0:06.435',1.400
'0:06.436',0.500
'0:06.437',-0.300
'0:06.438',-0.700
'0:06.439',-0.500
'0:06.440',0.100
'0:06.441',1.000
'0:06.442',1.800
'0:06.443',2.300
'0:06.444',2.600
'0:06.445',2.900
'0:06.446',3.200
'0:06.447',3.700
'0:06.448',4.100
'0:06.449',4.200
'0:06.450',3.900
'0:06.451',3.100
'0:06.452',2.000
'0:06.453',1.300
'0:06.454',1.100
'0:06.455',1.600
'0:06.456',2.500
'0:06.457',3.400
'0:06.458',3.900
'0:06.459',3.800
'0:06.460',3.100
'0:06.461',2.400
'0:06.462',2.000
'0:06.463',1.900
'0:06.464',2.000
'0:06.465',1.900
'0:06.466',1.500
'0:06.467',0.800
'0:06.468',0.400
'0:06.469',0.500
'0:06.470',1.200
'0:06.471',2.200
'0:06.472',3.200
'0:06.473',3.600
'0:06.474',3.300
'0:06.475',2.600
'0:06.476',2.000
'0:06.477',1.700
'0:06.478',1.700
'0:06.479',1.800
'0:06.480',1.600
'0:06.481',1.100
'0:06.482',0.600
'0:06.483',0.400
'0:06.484',0.800
'0:06.485',1.700
'0:06.486',2.800
'0:06.487',3.700
'0:06.488',4.100
'0:06.489',4.000
'0:06.490',3.900
'0:06.491',3.900
'0:06.492',4.200
'0:06.493',4.500
'0:06.494',4.400
'0:06.495',3.900
'0:06.496',3.000
'0:06.497',2.000
'0:06.498',1.200
'0:06.499',0.900
'0:06.500',1.100
'0:06.501',1.400
'0:06.502',1.700
'0:06.503',2.100
'0:06.504',2.500
'0:06.505',3.200
'0:06.506',3.800
'0:06.507',4.300
'0:06.508',4.300
'0:06.509',3.900
'0:06.510',3.300
'0:06.511',3.000
'0:06.512',3.100
'0:06.513',3.700
'0:06.514',4.500
'0:06.515',5.200
'0:06.516',5.700
'0:06.517',6.000
'0:06.518',6.400
'0:06.519',7.300
'0:06.520',8.300
'0:06.521',9.300
'0:06.522',9.800
'0:06.523',9.600
'0:06.524',8.800
'0:06.525',7.700
'0:06.526',6.600
'0:06.527',5.700
'0:06.528',5.100
'0:06.529',4.600
'0:06.530',4.200
'0:06.531',4.000
'0:06.532',3.800
'0:06.533',3.900
'0:06.534',4.200
'0:06.535',4.700
'0:06.536',5.300
'0:06.537',5.800
'0:06.538',6.200
'0:06.539',6.200
'0:06.540',5.900
'0:06.541',5.300
'0:06.542',4.600
'0:06.543',3.900
'0:06.544',3.300
'0:06.545',2.800
'0:06.546',2.600
'0:06.547',2.500
'0:06.548',2.700
'0:06.549',3.100
'0:06.550',3.900
'0:06.551',4.900
'0:06.552',5.800
'0:06.553',6.400
'0:06.554',6.300
'0:06.555',5.700
'0:06.556',4.900
'0:06.557',4.500
'0:06.558',4.700
'0:06.559',5.500
'0:06.560',6.500
'0:06.561',7.300
'0:06.562',7.400
'0:06.563',7.100
'0:06.564',6.500
'0:06.565',6.100
'0:06.566',6.200
'0:06.567',6.500
'0:06.568',6.800
'0:06.569',6.900
'0:06.570',6.700
'0:06.571',6.200
'0:06.572',5.800
'0:06.573',5.600
'0:06.574',5.600
'0:06.575',5.700
'0:06.576',5.800
'0:06.577',5.800
'0:06.578',5.700
'0:06.579',5.500
'0:06.580',5.400
'0:06.581',5.300
'0:06.582',5.100
'0:06.583',4.700
'0:06.584',4.100
'0:06.585',3.300
'0:06.586',2.700
'0:06.587',2.200
'0:06.588',2.100
'0:06.589',2.200
'0:06.590',2.400
'0:06.591',2.600
'0:06.592',2.700
'0:06.593',2.800
'0:06.594',3.200
'0:06.595',3.800
'0:06.596',4.600
'0:06.597',5.300
'0:06.598',5.700
'0:06.599',5.600
'0:06.600',5.200
'0:06.601',4.700
'0:06.602',4.400
'0:06.603',4.300
'0:06.604',4.200
'0:06.605',4.100
'0:06.606',3.900
'0:06.607',3.500
'0:06.608',3.100
'0:06.609',2.800
'0:06.610',2.600
'0:06.611',2.500
'0:06.612',2.500
'0:06.613',2.400
'0:06.614',2.000
'0:06.615',1.400
'0:06.616',0.600
'0:06.617',-0.400
'0:06.618',-1.200
'0:06.619',-1.700
'0:06.620',-1.800
'0:06.621',-1.500
'0:06.622',-1.100
'0:06.623',-1.000
'0:06.624',-1.200
'0:06.625',-1.700
'0:06.626',-2.200
'0:06.627',-2.400
'0:06.628',-2.300
'0:06.629',-1.900
'0:06.630',-1.500
'0:06.631',-1.400
'0:06.632',-1.500
'0:06.633',-1.800
'0:06.634',-2.100
'0:06.635',-2.100
'0:06.636',-1.800
'0:06.637',-1.500
'0:06.638',-1.200
'0:06.639',-1.200
'0:06.640',-1.400
'0:06.641',-1.800
'0:06.642',-2.100
'0:06.643',-2.300
'0:06.644',-2.100
'0:06.645',-1.700
'0:06.646',-1.200
'0:06.647',-0.800
'0:06.648',-0.800
'0:06.649',-1.000
'0:06.650',-1.500
'0:06.651',-1.800
'0:06.652',-1.700
'0:06.653',-1.000
'0:06.654',0.000
'0:06.655',1.000
'0:06.656',1.600
'0:06.657',1.700
'0:06.658',1.700
'0:06.659',2.000
'0:06.660',2.700
'0:06.661',3.600
'0:06.662',4.300
'0:06.663',4.300
'0:06.664',3.400
'0:06.665',2.000
'0:06.666',0.600
'0:06.667',-0.500
'0:06.668',-1.000
'0:06.669',-1.100
'0:06.670',-0.900
'0:06.671',-0.600
'0:06.672',-0.200
'0:06.673',0.500
'0:06.674',1.200
'0:06.675',1.700
'0:06.676',1.800
'0:06.677',1.400
'0:06.678',0.900
'0:06.679',0.900
'0:06.680',1.500
'0:06.681',2.400
'0:06.682',3.000
'0:06.683',2.900
'0:06.684',2.000
'0:06.685',0.700
'0:06.686',-0.300
'0:06.687',-0.400
'0:06.688',0.200
'0:06.689',1.100
'0:06.690',1.700
'0:06.691',1.800
'0:06.692',1.500
'0:06.693',1.100
'0:06.694',0.800
'0:06.695',0.800
'0:06.696',1.100
'0:06.697',1.300
'0:06.698',1.200
'0:06.699',0.900
'0:06.700',0.500
'0:06.701',0.200
'0:06.702',0.100
'0:06.703',0.200
'0:06.704',0.500
'0:06.705',0.700
'0:06.706',0.600
'0:06.707',0.200
'0:06.708',-0.400
'0:06.709',-1.000
'0:06.710',-1.400
'0:06.711',-1.700
'0:06.712',-2.000
'0:06.713',-2.400
'0:06.714',-3.000
'0:06.715',-3.600
'0:06.716',-3.900
'0:06.717',-3.700
'0:06.718',-3.100
'0:06.719',-2.100
'0:06.720',-1.200
'0:06.721',-0.400
'0:06.722',0.300
'0:06.723',1.400
'0:06.724',3.600
'0:06.725',7.100
'0:06.726',11.400
'0:06.727',15.600
'0:06.728',18.600
'0:06.729',19.400
'0:06.730',18.200
'0:06.731',15.400
'0:06.732',12.100
'0:06.733',9.100
'0:06.734',6.700
'0:06.735',4.700
'0:06.736',2.500
'0:06.737',-0.100
'0:06.738',-3.000
'0:06.739',-5.700
'0:06.740',-7.600
'0:06.741',-8.400
'0:06.742',-8.300
'0:06.743',-7.500
'0:06.744',-6.700
'0:06.745',-6.000
'0:06.746',-5.600
'0:06.747',-5.500
'0:06.748',-5.500
'0:06.749',-5.300
'0:06.750',-5.100
'0:06.751',-4.700
'0:06.752',-4.500
'0:06.753',-4.500
'0:06.754',-4.600
'0:06.755',-4.800
'0:06.756',-4.700
'0:06.757',-4.300
'0:06.758',-3.400
'0:06.759',-2.200
'0:06.760',-1.000
'0:06.761',0.000
'0:06.762',0.600
'0:06.763',1.000
'0:06.764',1.300
'0:06.765',1.800
'0:06.766',2.500
'0:06.767',3.200
'0:06.768',3.500
'0:06.769',3.500
'0:06.770',3.000
'0:06.771',2.400
'0:06.772',2.100
'0:06.773',2.100
'0:06.774',2.600
'0:06.775',3.200
'0:06.776',3.700
'0:06.777',3.900
'0:06.778',4.000
'0:06.779',4.100
'0:06.780',4.300
'0:06.781',4.500
'0:06.782',4.600
'0:06.783',4.200
'0:06.784',3.200
'0:06.785',1.600
'0:06.786',-0.100
'0:06.787',-1.600
'0:06.788',-2.600
'0:06.789',-3.100
'0:06.790',-3.200
'0:06.791',-3.300
'0:06.792',-3.600
'0:06.793',-4.200
'0:06.794',-5.000
'0:06.795',-5.600
'0:06.796',-5.900
'0:06.797',-5.600
'0:06.798',-5.000
'0:06.799',-4.100
'0:06.800',-3.400
'0:06.801',-3.000
'0:06.802',-2.900
'0:06.803',-2.800
'0:06.804',-2.400
'0:06.805',-1.800
'0:06.806',-1.000
'0:06.807',-0.300
'0:06.808',0.000
'0:06.809',-0.100
'0:06.810',-0.300
'0:06.811',-0.600
'0:06.812',-0.800
'0:06.813',-0.900
'0:06.814',-1.100
'0:06.815',-1.500
'0:06.816',-2.200
'0:06.817',-2.800
'0:06.818',-3.100
