'Elapsed time','Abdomen_1'
'0:00.000',-8.800
'0:00.001',-13.900
'0:00.002',-18.700
'0:00.003',-23.400
'0:00.004',-27.900
'0:00.005',-32.801
'0:00.006',-38.101
'0:00.007',-43.801
'0:00.008',-49.301
'0:00.009',-54.001
'0:00.010',-57.501
'0:00.011',-59.501
'0:00.012',-60.401
'0:00.013',-60.501
'0:00.014',-60.301
'0:00.015',-59.701
'0:00.016',-58.901
'0:00.017',-57.601
'0:00.018',-55.701
'0:00.019',-53.001
'0:00.020',-49.401
'0:00.021',-44.901
'0:00.022',-39.601
'0:00.023',-33.701
'0:00.024',-27.800
'0:00.025',-22.200
'0:00.026',-17.200
'0:00.027',-12.900
'0:00.028',-9.400
'0:00.029',-6.600
'0:00.030',-4.500
'0:00.031',-2.700
'0:00.032',-1.100
'0:00.033',0.700
'0:00.034',2.700
'0:00.035',4.600
'0:00.036',6.000
'0:00.037',6.400
'0:00.038',5.700
'0:00.039',4.300
'0:00.040',2.700
'0:00.041',1.800
'0:00.042',2.000
'0:00.043',2.900
'0:00.044',4.100
'0:00.045',4.700
'0:00.046',4.500
'0:00.047',3.500
'0:00.048',2.300
'0:00.049',1.400
'0:00.050',1.000
'0:00.051',1.100
'0:00.052',1.300
'0:00.053',1.300
'0:00.054',1.000
'0:00.055',0.700
'0:00.056',0.500
'0:00.057',0.600
'0:00.058',0.700
'0:00.059',0.700
'0:00.060',0.400
'0:00.061',-0.100
'0:00.062',-0.700
'0:00.063',-0.900
'0:00.064',-0.500
'0:00.065',0.100
'0:00.066',0.800
'0:00.067',1.100
'0:00.068',1.000
'0:00.069',0.600
'0:00.070',0.400
'0:00.071',0.800
'0:00.072',1.800
'0:00.073',3.000
'0:00.074',3.900
'0:00.075',4.200
'0:00.076',3.600
'0:00.077',2.600
'0:00.078',1.500
'0:00.079',0.700
'0:00.080',0.300
'0:00.081',0.200
'0:00.082',0.300
'0:00.083',0.400
'0:00.084',0.400
'0:00.085',0.300
'0:00.086',-0.100
'0:00.087',-0.900
'0:00.088',-1.800
'0:00.089',-2.500
'0:00.090',-2.500
'0:00.091',-1.600
'0:00.092',0.000
'0:00.093',1.500
'0:00.094',2.300
'0:00.095',2.300
'0:00.096',1.400
'0:00.097',0.300
'0:00.098',-0.400
'0:00.099',-0.700
'0:00.100',-0.600
'0:00.101',-0.400
'0:00.102',-0.300
'0:00.103',-0.500
'0:00.104',-0.700
'0:00.105',-0.800
'0:00.106',-0.800
'0:00.107',-0.600
'0:00.108',-0.300
'0:00.109',-0.200
'0:00.110',-0.100
'0:00.111',-0.100
'0:00.112',0.000
'0:00.113',0.100
'0:00.114',0.300
'0:00.115',0.500
'0:00.116',0.800
'0:00.117',1.300
'0:00.118',1.700
'0:00.119',2.000
'0:00.120',2.200
'0:00.121',2.200
'0:00.122',2.200
'0:00.123',2.400
'0:00.124',2.800
'0:00.125',3.500
'0:00.126',4.200
'0:00.127',4.500
'0:00.128',4.500
'0:00.129',4.300
'0:00.130',4.200
'0:00.131',4.600
'0:00.132',5.400
'0:00.133',6.300
'0:00.134',6.600
'0:00.135',5.900
'0:00.136',4.200
'0:00.137',2.300
'0:00.138',0.700
'0:00.139',0.000
'0:00.140',0.200
'0:00.141',0.700
'0:00.142',0.600
'0:00.143',-0.200
'0:00.144',-1.700
'0:00.145',-3.100
'0:00.146',-4.000
'0:00.147',-4.000
'0:00.148',-3.600
'0:00.149',-3.200
'0:00.150',-3.300
'0:00.151',-3.900
'0:00.152',-4.600
'0:00.153',-5.100
'0:00.154',-5.400
'0:00.155',-5.600
'0:00.156',-5.900
'0:00.157',-6.400
'0:00.158',-7.100
'0:00.159',-7.600
'0:00.160',-7.900
'0:00.161',-8.100
'0:00.162',-8.600
'0:00.163',-9.300
'0:00.164',-10.100
'0:00.165',-10.600
'0:00.166',-10.500
'0:00.167',-9.600
'0:00.168',-8.500
'0:00.169',-7.400
'0:00.170',-6.700
'0:00.171',-6.300
'0:00.172',-5.900
'0:00.173',-5.000
'0:00.174',-3.500
'0:00.175',-1.400
'0:00.176',1.200
'0:00.177',4.000
'0:00.178',6.900
'0:00.179',9.600
'0:00.180',11.800
'0:00.181',12.900
'0:00.182',12.600
'0:00.183',10.800
'0:00.184',8.100
'0:00.185',5.100
'0:00.186',2.100
'0:00.187',-0.500
'0:00.188',-3.100
'0:00.189',-5.900
'0:00.190',-9.100
'0:00.191',-12.300
'0:00.192',-15.100
'0:00.193',-17.000
'0:00.194',-17.700
'0:00.195',-17.400
'0:00.196',-16.500
'0:00.197',-15.600
'0:00.198',-14.900
'0:00.199',-14.800
'0:00.200',-14.800
'0:00.201',-14.700
'0:00.202',-14.100
'0:00.203',-12.900
'0:00.204',-11.300
'0:00.205',-9.900
'0:00.206',-9.100
'0:00.207',-9.200
'0:00.208',-10.000
'0:00.209',-11.100
'0:00.210',-12.000
'0:00.211',-12.700
'0:00.212',-13.300
'0:00.213',-14.000
'0:00.214',-15.000
'0:00.215',-16.200
'0:00.216',-17.200
'0:00.217',-17.800
'0:00.218',-17.900
'0:00.219',-17.700
'0:00.220',-17.500
'0:00.221',-17.400
'0:00.222',-17.400
'0:00.223',-17.300
'0:00.224',-16.800
'0:00.225',-16.000
'0:00.226',-15.100
'0:00.227',-14.300
'0:00.228',-13.700
'0:00.229',-13.100
'0:00.230',-12.400
'0:00.231',-11.500
'0:00.232',-10.500
'0:00.233',-9.800
'0:00.234',-9.900
'0:00.235',-10.900
'0:00.236',-12.500
'0:00.237',-14.200
'0:00.238',-15.600
'0:00.239',-16.300
'0:00.240',-16.700
'0:00.241',-17.000
'0:00.242',-17.600
'0:00.243',-18.600
'0:00.244',-19.800
'0:00.245',-20.600
'0:00.246',-21.000
'0:00.247',-20.800
'0:00.248',-20.200
'0:00.249',-19.500
'0:00.250',-19.100
'0:00.251',-19.000
'0:00.252',-19.100
'0:00.253',-19.300
'0:00.254',-19.600
'0:00.255',-19.800
'0:00.256',-19.900
'0:00.257',-19.900
'0:00.258',-19.800
'0:00.259',-19.500
'0:00.260',-18.900
'0:00.261',-17.900
'0:00.262',-16.800
'0:00.263',-15.600
'0:00.264',-14.600
'0:00.265',-13.800
'0:00.266',-13.300
'0:00.267',-12.900
'0:00.268',-12.200
'0:00.269',-11.300
'0:00.270',-10.100
'0:00.271',-8.900
'0:00.272',-8.200
'0:00.273',-8.000
'0:00.274',-8.200
'0:00.275',-8.300
'0:00.276',-7.800
'0:00.277',-6.500
'0:00.278',-4.500
'0:00.279',-2.300
'0:00.280',-0.500
'0:00.281',0.500
'0:00.282',0.800
'0:00.283',0.900
'0:00.284',1.000
'0:00.285',1.500
'0:00.286',2.200
'0:00.287',2.700
'0:00.288',2.800
'0:00.289',2.400
'0:00.290',1.900
'0:00.291',1.500
'0:00.292',1.500
'0:00.293',2.100
'0:00.294',3.100
'0:00.295',4.300
'0:00.296',5.500
'0:00.297',6.600
'0:00.298',7.400
'0:00.299',7.800
'0:00.300',7.900
'0:00.301',7.800
'0:00.302',7.500
'0:00.303',7.100
'0:00.304',6.600
'0:00.305',6.000
'0:00.306',5.300
'0:00.307',4.700
'0:00.308',4.100
'0:00.309',3.900
'0:00.310',4.000
'0:00.311',4.300
'0:00.312',4.600
'0:00.313',4.800
'0:00.314',4.800
'0:00.315',4.900
'0:00.316',5.300
'0:00.317',5.700
'0:00.318',6.100
'0:00.319',6.200
'0:00.320',6.000
'0:00.321',5.800
'0:00.322',5.600
'0:00.323',5.800
'0:00.324',6.300
'0:00.325',6.700
'0:00.326',7.000
'0:00.327',7.100
'0:00.328',7.000
'0:00.329',7.200
'0:00.330',7.700
'0:00.331',8.600
'0:00.332',9.800
'0:00.333',11.000
'0:00.334',11.900
'0:00.335',12.400
'0:00.336',12.400
'0:00.337',12.000
'0:00.338',11.300
'0:00.339',10.500
'0:00.340',9.700
'0:00.341',9.100
'0:00.342',8.500
'0:00.343',7.800
'0:00.344',6.900
'0:00.345',6.000
'0:00.346',5.400
'0:00.347',5.300
'0:00.348',5.800
'0:00.349',6.600
'0:00.350',7.300
'0:00.351',7.600
'0:00.352',7.300
'0:00.353',6.600
'0:00.354',6.000
'0:00.355',5.700
'0:00.356',5.800
'0:00.357',6.100
'0:00.358',6.000
'0:00.359',5.300
'0:00.360',4.100
'0:00.361',2.800
'0:00.362',1.900
'0:00.363',1.700
'0:00.364',2.000
'0:00.365',2.500
'0:00.366',2.800
'0:00.367',3.000
'0:00.368',3.000
'0:00.369',3.200
'0:00.370',3.600
'0:00.371',4.000
'0:00.372',4.100
'0:00.373',3.800
'0:00.374',3.300
'0:00.375',2.900
'0:00.376',3.000
'0:00.377',3.500
'0:00.378',4.400
'0:00.379',5.200
'0:00.380',5.900
'0:00.381',6.500
'0:00.382',7.000
'0:00.383',7.500
'0:00.384',7.900
'0:00.385',8.000
'0:00.386',7.700
'0:00.387',7.200
'0:00.388',6.700
'0:00.389',6.300
'0:00.390',6.200
'0:00.391',6.300
'0:00.392',6.400
'0:00.393',6.400
'0:00.394',6.200
'0:00.395',6.000
'0:00.396',5.800
'0:00.397',5.600
'0:00.398',5.700
'0:00.399',5.900
'0:00.400',6.300
'0:00.401',6.700
'0:00.402',6.800
'0:00.403',6.500
'0:00.404',5.600
'0:00.405',4.500
'0:00.406',3.500
'0:00.407',3.100
'0:00.408',3.300
'0:00.409',4.100
'0:00.410',5.000
'0:00.411',5.700
'0:00.412',5.800
'0:00.413',5.600
'0:00.414',5.200
'0:00.415',4.800
'0:00.416',4.600
'0:00.417',4.300
'0:00.418',4.000
'0:00.419',3.800
'0:00.420',3.900
'0:00.421',4.500
'0:00.422',5.600
'0:00.423',6.900
'0:00.424',8.000
'0:00.425',8.500
'0:00.426',8.300
'0:00.427',7.700
'0:00.428',7.100
'0:00.429',6.900
'0:00.430',7.000
'0:00.431',7.200
'0:00.432',7.100
'0:00.433',6.400
'0:00.434',5.300
'0:00.435',4.100
'0:00.436',3.300
'0:00.437',3.200
'0:00.438',3.700
'0:00.439',4.600
'0:00.440',5.600
'0:00.441',6.300
'0:00.442',6.700
'0:00.443',6.700
'0:00.444',6.700
'0:00.445',6.800
'0:00.446',7.100
'0:00.447',7.800
'0:00.448',8.600
'0:00.449',9.500
'0:00.450',10.200
'0:00.451',10.700
'0:00.452',11.100
'0:00.453',11.600
'0:00.454',12.200
'0:00.455',12.900
'0:00.456',13.300
'0:00.457',13.000
'0:00.458',12.200
'0:00.459',10.800
'0:00.460',9.600
'0:00.461',8.900
'0:00.462',8.700
'0:00.463',9.100
'0:00.464',9.400
'0:00.465',9.300
'0:00.466',8.600
'0:00.467',7.600
'0:00.468',6.700
'0:00.469',6.200
'0:00.470',6.200
'0:00.471',6.400
'0:00.472',6.500
'0:00.473',6.300
'0:00.474',5.700
'0:00.475',4.900
'0:00.476',4.100
'0:00.477',3.500
'0:00.478',3.200
'0:00.479',3.200
'0:00.480',3.400
'0:00.481',3.600
'0:00.482',3.800
'0:00.483',3.800
'0:00.484',3.800
'0:00.485',3.700
'0:00.486',3.600
'0:00.487',3.500
'0:00.488',3.400
'0:00.489',3.100
'0:00.490',2.700
'0:00.491',2.300
'0:00.492',2.100
'0:00.493',2.600
'0:00.494',3.600
'0:00.495',4.800
'0:00.496',5.900
'0:00.497',6.400
'0:00.498',6.100
'0:00.499',5.400
'0:00.500',4.700
'0:00.501',4.300
'0:00.502',4.200
'0:00.503',4.400
'0:00.504',4.300
'0:00.505',3.900
'0:00.506',3.400
'0:00.507',2.900
'0:00.508',2.900
'0:00.509',3.400
'0:00.510',4.200
'0:00.511',5.000
'0:00.512',5.600
'0:00.513',6.000
'0:00.514',6.100
'0:00.515',6.100
'0:00.516',6.100
'0:00.517',6.200
'0:00.518',6.400
'0:00.519',6.400
'0:00.520',6.300
'0:00.521',5.700
'0:00.522',4.500
'0:00.523',3.000
'0:00.524',1.400
'0:00.525',0.300
'0:00.526',0.100
'0:00.527',0.600
'0:00.528',1.600
'0:00.529',2.600
'0:00.530',3.200
'0:00.531',3.400
'0:00.532',3.400
'0:00.533',3.500
'0:00.534',3.700
'0:00.535',3.800
'0:00.536',3.500
'0:00.537',2.800
'0:00.538',1.900
'0:00.539',1.200
'0:00.540',1.100
'0:00.541',1.600
'0:00.542',2.600
'0:00.543',3.600
'0:00.544',4.500
'0:00.545',5.100
'0:00.546',5.700
'0:00.547',6.400
'0:00.548',7.300
'0:00.549',8.500
'0:00.550',9.600
'0:00.551',10.200
'0:00.552',10.100
'0:00.553',9.100
'0:00.554',7.500
'0:00.555',5.900
'0:00.556',4.600
'0:00.557',4.000
'0:00.558',3.900
'0:00.559',4.100
'0:00.560',4.000
'0:00.561',3.500
'0:00.562',2.600
'0:00.563',1.700
'0:00.564',1.100
'0:00.565',0.800
'0:00.566',0.600
'0:00.567',0.300
'0:00.568',-0.400
'0:00.569',-1.100
'0:00.570',-1.800
'0:00.571',-1.900
'0:00.572',-1.600
'0:00.573',-1.000
'0:00.574',-0.400
'0:00.575',-0.100
'0:00.576',-0.300
'0:00.577',-0.900
'0:00.578',-1.700
'0:00.579',-2.400
'0:00.580',-2.800
'0:00.581',-2.900
'0:00.582',-2.600
'0:00.583',-2.000
'0:00.584',-1.200
'0:00.585',-0.700
'0:00.586',-0.700
'0:00.587',-1.000
'0:00.588',-1.500
'0:00.589',-1.900
'0:00.590',-1.800
'0:00.591',-1.400
'0:00.592',-0.700
'0:00.593',-0.200
'0:00.594',0.000
'0:00.595',-0.100
'0:00.596',-0.200
'0:00.597',-0.200
'0:00.598',0.100
'0:00.599',0.400
'0:00.600',0.800
'0:00.601',1.000
'0:00.602',1.100
'0:00.603',1.300
'0:00.604',1.600
'0:00.605',2.000
'0:00.606',2.200
'0:00.607',2.400
'0:00.608',2.500
'0:00.609',2.500
'0:00.610',2.600
'0:00.611',2.800
'0:00.612',2.900
'0:00.613',3.000
'0:00.614',3.000
'0:00.615',3.100
'0:00.616',3.400
'0:00.617',3.700
'0:00.618',4.000
'0:00.619',4.100
'0:00.620',3.700
'0:00.621',3.000
'0:00.622',2.200
'0:00.623',1.700
'0:00.624',1.600
'0:00.625',2.000
'0:00.626',2.800
'0:00.627',3.600
'0:00.628',4.100
'0:00.629',4.100
'0:00.630',3.500
'0:00.631',2.400
'0:00.632',1.100
'0:00.633',0.000
'0:00.634',-0.500
'0:00.635',-0.300
'0:00.636',0.500
'0:00.637',1.500
'0:00.638',2.400
'0:00.639',3.000
'0:00.640',3.500
'0:00.641',4.100
'0:00.642',5.200
'0:00.643',7.100
'0:00.644',10.000
'0:00.645',13.500
'0:00.646',17.300
'0:00.647',20.500
'0:00.648',22.500
'0:00.649',22.600
'0:00.650',20.900
'0:00.651',18.000
'0:00.652',14.700
'0:00.653',11.900
'0:00.654',10.200
'0:00.655',9.300
'0:00.656',8.500
'0:00.657',7.200
'0:00.658',5.100
'0:00.659',2.300
'0:00.660',-0.500
'0:00.661',-2.600
'0:00.662',-3.600
'0:00.663',-3.300
'0:00.664',-2.200
'0:00.665',-0.500
'0:00.666',1.300
'0:00.667',3.300
'0:00.668',5.300
'0:00.669',7.200
'0:00.670',8.900
'0:00.671',10.000
'0:00.672',10.400
'0:00.673',10.100
'0:00.674',9.200
'0:00.675',8.400
'0:00.676',8.200
'0:00.677',9.000
'0:00.678',10.800
'0:00.679',13.300
'0:00.680',15.900
'0:00.681',17.900
'0:00.682',19.000
'0:00.683',19.300
'0:00.684',19.200
'0:00.685',19.000
'0:00.686',18.700
'0:00.687',18.100
'0:00.688',16.700
'0:00.689',14.100
'0:00.690',10.300
'0:00.691',5.600
'0:00.692',0.800
'0:00.693',-3.900
'0:00.694',-8.300
'0:00.695',-12.400
'0:00.696',-16.600
'0:00.697',-21.000
'0:00.698',-25.600
'0:00.699',-30.400
'0:00.700',-35.201
'0:00.701',-40.101
'0:00.702',-44.801
'0:00.703',-49.501
'0:00.704',-53.801
'0:00.705',-57.501
'0:00.706',-60.301
'0:00.707',-62.001
'0:00.708',-62.601
'0:00.709',-62.201
'0:00.710',-61.101
'0:00.711',-59.701
'0:00.712',-58.001
'0:00.713',-56.101
'0:00.714',-53.801
'0:00.715',-51.001
'0:00.716',-47.301
'0:00.717',-42.701
'0:00.718',-37.301
'0:00.719',-31.500
'0:00.720',-25.600
'0:00.721',-20.200
'0:00.722',-15.600
'0:00.723',-12.100
'0:00.724',-9.700
'0:00.725',-8.000
'0:00.726',-6.800
'0:00.727',-5.800
'0:00.728',-4.800
'0:00.729',-3.800
'0:00.730',-3.000
'0:00.731',-2.300
'0:00.732',-2.000
'0:00.733',-1.900
'0:00.734',-2.200
'0:00.735',-2.400
'0:00.736',-2.600
'0:00.737',-2.600
'0:00.738',-2.300
'0:00.739',-1.800
'0:00.740',-1.100
'0:00.741',-0.600
'0:00.742',-0.100
'0:00.743',0.200
'0:00.744',0.400
'0:00.745',0.700
'0:00.746',1.100
'0:00.747',1.400
'0:00.748',1.700
'0:00.749',1.900
'0:00.750',1.900
'0:00.751',1.900
'0:00.752',2.100
'0:00.753',2.600
'0:00.754',3.400
'0:00.755',4.300
'0:00.756',5.100
'0:00.757',5.500
'0:00.758',5.500
'0:00.759',5.100
'0:00.760',4.600
'0:00.761',4.100
'0:00.762',3.600
'0:00.763',3.100
'0:00.764',2.700
'0:00.765',2.400
'0:00.766',2.400
'0:00.767',2.600
'0:00.768',3.000
'0:00.769',3.400
'0:00.770',3.500
'0:00.771',3.300
'0:00.772',2.800
'0:00.773',2.300
'0:00.774',2.100
'0:00.775',2.500
'0:00.776',3.300
'0:00.777',4.600
'0:00.778',6.000
'0:00.779',7.200
'0:00.780',8.200
'0:00.781',8.800
'0:00.782',9.000
'0:00.783',9.000
'0:00.784',8.700
'0:00.785',8.200
'0:00.786',7.600
'0:00.787',6.700
'0:00.788',5.700
'0:00.789',4.500
'0:00.790',3.200
'0:00.791',1.900
'0:00.792',0.800
'0:00.793',0.200
'0:00.794',0.200
'0:00.795',0.700
'0:00.796',1.400
'0:00.797',1.900
'0:00.798',1.900
'0:00.799',1.500
'0:00.800',0.900
'0:00.801',0.500
'0:00.802',0.400
'0:00.803',0.700
'0:00.804',1.000
'0:00.805',0.900
'0:00.806',0.500
'0:00.807',-0.200
'0:00.808',-0.600
'0:00.809',-0.400
'0:00.810',0.500
'0:00.811',1.800
'0:00.812',3.100
'0:00.813',3.800
'0:00.814',3.900
'0:00.815',3.400
'0:00.816',2.700
'0:00.817',2.100
'0:00.818',1.900
'0:00.819',1.900
'0:00.820',2.100
'0:00.821',2.300
'0:00.822',2.300
'0:00.823',2.100
'0:00.824',1.700
'0:00.825',1.400
'0:00.826',1.400
'0:00.827',1.600
'0:00.828',2.000
'0:00.829',2.000
'0:00.830',1.500
'0:00.831',0.300
'0:00.832',-1.100
'0:00.833',-2.400
'0:00.834',-2.800
'0:00.835',-2.400
'0:00.836',-1.300
'0:00.837',-0.100
'0:00.838',0.400
'0:00.839',-0.100
'0:00.840',-1.500
'0:00.841',-3.100
'0:00.842',-4.400
'0:00.843',-4.900
'0:00.844',-4.800
'0:00.845',-4.400
'0:00.846',-4.100
'0:00.847',-4.300
'0:00.848',-4.900
'0:00.849',-5.700
'0:00.850',-6.300
'0:00.851',-6.500
'0:00.852',-6.100
'0:00.853',-5.400
'0:00.854',-4.700
'0:00.855',-4.300
'0:00.856',-4.400
'0:00.857',-5.100
'0:00.858',-6.200
'0:00.859',-7.000
'0:00.860',-7.400
'0:00.861',-7.100
'0:00.862',-6.400
'0:00.863',-5.700
'0:00.864',-5.600
'0:00.865',-6.200
'0:00.866',-7.300
'0:00.867',-8.600
'0:00.868',-9.600
'0:00.869',-9.900
'0:00.870',-9.800
'0:00.871',-9.300
'0:00.872',-8.800
'0:00.873',-8.600
'0:00.874',-8.800
'0:00.875',-9.100
'0:00.876',-9.300
'0:00.877',-9.400
'0:00.878',-9.100
'0:00.879',-8.700
'0:00.880',-8.400
'0:00.881',-8.500
'0:00.882',-9.200
'0:00.883',-10.400
'0:00.884',-11.700
'0:00.885',-12.500
'0:00.886',-12.500
'0:00.887',-11.700
'0:00.888',-10.400
'0:00.889',-9.000
'0:00.890',-8.000
'0:00.891',-7.500
'0:00.892',-7.600
'0:00.893',-7.800
'0:00.894',-8.100
'0:00.895',-8.400
'0:00.896',-9.000
'0:00.897',-10.100
'0:00.898',-11.600
'0:00.899',-13.500
'0:00.900',-15.400
'0:00.901',-16.700
'0:00.902',-17.400
'0:00.903',-17.500
'0:00.904',-17.300
'0:00.905',-17.200
'0:00.906',-17.100
'0:00.907',-17.100
'0:00.908',-17.200
'0:00.909',-17.300
'0:00.910',-17.600
'0:00.911',-18.300
'0:00.912',-19.200
'0:00.913',-20.200
'0:00.914',-20.800
'0:00.915',-20.800
'0:00.916',-20.500
'0:00.917',-20.300
'0:00.918',-20.400
'0:00.919',-21.100
'0:00.920',-22.000
'0:00.921',-22.500
'0:00.922',-22.400
'0:00.923',-21.700
'0:00.924',-20.700
'0:00.925',-20.000
'0:00.926',-20.000
'0:00.927',-20.500
'0:00.928',-21.200
'0:00.929',-21.700
'0:00.930',-21.700
'0:00.931',-21.300
'0:00.932',-20.900
'0:00.933',-20.700
'0:00.934',-21.000
'0:00.935',-21.800
'0:00.936',-22.700
'0:00.937',-23.400
'0:00.938',-23.500
'0:00.939',-22.900
'0:00.940',-22.100
'0:00.941',-21.500
'0:00.942',-21.400
'0:00.943',-21.700
'0:00.944',-22.300
'0:00.945',-22.700
'0:00.946',-22.600
'0:00.947',-21.900
'0:00.948',-20.900
'0:00.949',-19.900
'0:00.950',-19.000
'0:00.951',-18.200
'0:00.952',-17.500
'0:00.953',-16.900
'0:00.954',-16.400
'0:00.955',-16.300
'0:00.956',-16.300
'0:00.957',-16.300
'0:00.958',-15.900
'0:00.959',-14.800
'0:00.960',-13.400
'0:00.961',-12.000
'0:00.962',-10.900
'0:00.963',-10.500
'0:00.964',-10.400
'0:00.965',-10.300
'0:00.966',-9.700
'0:00.967',-8.700
'0:00.968',-7.400
'0:00.969',-6.400
'0:00.970',-5.900
'0:00.971',-6.000
'0:00.972',-6.400
'0:00.973',-6.500
'0:00.974',-6.100
'0:00.975',-5.200
'0:00.976',-4.000
'0:00.977',-2.600
'0:00.978',-1.200
'0:00.979',0.200
'0:00.980',1.600
'0:00.981',2.900
'0:00.982',4.000
'0:00.983',4.800
'0:00.984',5.100
'0:00.985',4.900
'0:00.986',4.300
'0:00.987',3.400
'0:00.988',2.500
'0:00.989',1.800
'0:00.990',1.500
'0:00.991',1.800
'0:00.992',2.500
'0:00.993',3.600
'0:00.994',4.500
'0:00.995',5.000
'0:00.996',4.800
'0:00.997',4.100
'0:00.998',3.200
'0:00.999',2.500
'0:01.000',2.100
'0:01.001',2.000
'0:01.002',2.300
'0:01.003',2.700
'0:01.004',3.300
'0:01.005',4.100
'0:01.006',5.000
'0:01.007',6.200
'0:01.008',7.400
'0:01.009',8.500
'0:01.010',9.100
'0:01.011',9.200
'0:01.012',8.700
'0:01.013',7.400
'0:01.014',5.700
'0:01.015',3.800
'0:01.016',2.200
'0:01.017',1.200
'0:01.018',0.900
'0:01.019',1.200
'0:01.020',1.700
'0:01.021',2.000
'0:01.022',2.000
'0:01.023',1.600
'0:01.024',1.200
'0:01.025',1.000
'0:01.026',1.100
'0:01.027',1.600
'0:01.028',2.300
'0:01.029',3.200
'0:01.030',4.100
'0:01.031',4.500
'0:01.032',4.500
'0:01.033',4.000
'0:01.034',3.000
'0:01.035',1.900
'0:01.036',0.900
'0:01.037',0.100
'0:01.038',-0.300
'0:01.039',-0.400
'0:01.040',-0.300
'0:01.041',0.300
'0:01.042',1.100
'0:01.043',2.100
'0:01.044',3.100
'0:01.045',3.600
'0:01.046',3.700
'0:01.047',3.500
'0:01.048',3.400
'0:01.049',3.700
'0:01.050',4.400
'0:01.051',5.500
'0:01.052',6.400
'0:01.053',6.800
'0:01.054',6.700
'0:01.055',6.300
'0:01.056',5.900
'0:01.057',5.900
'0:01.058',6.300
'0:01.059',6.900
'0:01.060',7.500
'0:01.061',7.900
'0:01.062',8.000
'0:01.063',7.800
'0:01.064',7.400
'0:01.065',6.900
'0:01.066',6.500
'0:01.067',6.100
'0:01.068',5.800
'0:01.069',5.700
'0:01.070',5.700
'0:01.071',5.900
'0:01.072',6.100
'0:01.073',6.400
'0:01.074',6.800
'0:01.075',7.100
'0:01.076',7.400
'0:01.077',7.500
'0:01.078',7.300
'0:01.079',7.000
'0:01.080',6.700
'0:01.081',6.600
'0:01.082',6.700
'0:01.083',7.100
'0:01.084',7.500
'0:01.085',7.800
'0:01.086',7.800
'0:01.087',7.600
'0:01.088',7.000
'0:01.089',6.300
'0:01.090',5.500
'0:01.091',4.800
'0:01.092',4.200
'0:01.093',4.000
'0:01.094',4.000
'0:01.095',4.300
'0:01.096',4.400
'0:01.097',4.200
'0:01.098',3.700
'0:01.099',3.000
'0:01.100',2.400
'0:01.101',2.300
'0:01.102',2.700
'0:01.103',3.500
'0:01.104',4.500
'0:01.105',5.400
'0:01.106',6.200
'0:01.107',7.300
'0:01.108',9.000
'0:01.109',11.700
'0:01.110',15.200
'0:01.111',19.300
'0:01.112',23.400
'0:01.113',27.000
'0:01.114',29.600
'0:01.115',30.800
'0:01.116',30.600
'0:01.117',29.100
'0:01.118',26.400
'0:01.119',23.200
'0:01.120',19.800
'0:01.121',16.600
'0:01.122',13.700
'0:01.123',11.100
'0:01.124',8.400
'0:01.125',5.700
'0:01.126',3.000
'0:01.127',0.600
'0:01.128',-1.300
'0:01.129',-2.400
'0:01.130',-2.600
'0:01.131',-2.000
'0:01.132',-0.900
'0:01.133',0.700
'0:01.134',2.500
'0:01.135',4.000
'0:01.136',5.000
'0:01.137',5.300
'0:01.138',4.900
'0:01.139',4.300
'0:01.140',3.700
'0:01.141',3.400
'0:01.142',3.500
'0:01.143',4.000
'0:01.144',4.600
'0:01.145',5.100
'0:01.146',5.500
'0:01.147',5.600
'0:01.148',5.400
'0:01.149',5.100
'0:01.150',4.700
'0:01.151',4.400
'0:01.152',4.300
'0:01.153',4.400
'0:01.154',4.600
'0:01.155',4.700
'0:01.156',4.600
'0:01.157',4.500
'0:01.158',4.500
'0:01.159',4.800
'0:01.160',5.500
'0:01.161',6.200
'0:01.162',6.800
'0:01.163',7.100
'0:01.164',7.000
'0:01.165',6.600
'0:01.166',6.200
'0:01.167',5.900
'0:01.168',5.600
'0:01.169',5.400
'0:01.170',5.100
'0:01.171',4.800
'0:01.172',4.500
'0:01.173',4.000
'0:01.174',3.400
'0:01.175',2.800
'0:01.176',2.400
'0:01.177',2.300
'0:01.178',2.300
'0:01.179',2.300
'0:01.180',2.000
'0:01.181',1.500
'0:01.182',0.800
'0:01.183',0.100
'0:01.184',0.000
'0:01.185',0.400
'0:01.186',1.400
'0:01.187',2.700
'0:01.188',3.800
'0:01.189',4.500
'0:01.190',4.500
'0:01.191',4.100
'0:01.192',3.300
'0:01.193',2.600
'0:01.194',2.200
'0:01.195',2.000
'0:01.196',2.000
'0:01.197',2.000
'0:01.198',1.900
'0:01.199',1.500
'0:01.200',1.000
'0:01.201',0.500
'0:01.202',0.000
'0:01.203',-0.200
'0:01.204',0.100
'0:01.205',0.700
'0:01.206',1.800
'0:01.207',3.200
'0:01.208',4.500
'0:01.209',5.600
'0:01.210',6.200
'0:01.211',6.400
'0:01.212',6.600
'0:01.213',7.000
'0:01.214',7.600
'0:01.215',8.400
'0:01.216',8.900
'0:01.217',8.800
'0:01.218',8.100
'0:01.219',6.800
'0:01.220',5.400
'0:01.221',4.200
'0:01.222',3.300
'0:01.223',2.800
'0:01.224',2.400
'0:01.225',2.200
'0:01.226',2.000
'0:01.227',2.000
'0:01.228',2.100
'0:01.229',2.200
'0:01.230',2.400
'0:01.231',2.600
'0:01.232',2.800
'0:01.233',3.100
'0:01.234',3.300
'0:01.235',3.500
'0:01.236',3.500
'0:01.237',3.300
'0:01.238',3.100
'0:01.239',3.100
'0:01.240',3.400
'0:01.241',3.800
'0:01.242',4.000
'0:01.243',4.000
'0:01.244',3.500
'0:01.245',2.900
'0:01.246',2.400
'0:01.247',2.300
'0:01.248',2.700
'0:01.249',3.400
'0:01.250',3.900
'0:01.251',4.000
'0:01.252',3.700
'0:01.253',3.300
'0:01.254',3.100
'0:01.255',3.300
'0:01.256',4.000
'0:01.257',4.700
'0:01.258',5.100
'0:01.259',5.200
'0:01.260',4.900
'0:01.261',4.600
'0:01.262',4.500
'0:01.263',4.700
'0:01.264',5.100
'0:01.265',5.300
'0:01.266',5.400
'0:01.267',5.400
'0:01.268',5.300
'0:01.269',5.400
'0:01.270',5.500
'0:01.271',5.600
'0:01.272',5.500
'0:01.273',5.200
'0:01.274',4.800
'0:01.275',4.400
'0:01.276',4.300
'0:01.277',4.300
'0:01.278',4.400
'0:01.279',4.700
'0:01.280',5.100
'0:01.281',5.600
'0:01.282',6.200
'0:01.283',6.600
'0:01.284',6.600
'0:01.285',6.400
'0:01.286',5.900
'0:01.287',5.800
'0:01.288',6.000
'0:01.289',6.500
'0:01.290',7.100
'0:01.291',7.200
'0:01.292',6.800
'0:01.293',6.000
'0:01.294',5.100
'0:01.295',4.600
'0:01.296',4.500
'0:01.297',4.600
'0:01.298',4.700
'0:01.299',4.500
'0:01.300',4.400
'0:01.301',4.400
'0:01.302',4.700
'0:01.303',5.400
'0:01.304',6.000
'0:01.305',6.300
'0:01.306',6.200
'0:01.307',5.700
'0:01.308',5.000
'0:01.309',4.400
'0:01.310',3.800
'0:01.311',3.400
'0:01.312',3.100
'0:01.313',2.800
'0:01.314',2.600
'0:01.315',2.500
'0:01.316',2.600
'0:01.317',2.900
'0:01.318',3.600
'0:01.319',4.700
'0:01.320',6.100
'0:01.321',7.700
'0:01.322',9.100
'0:01.323',10.200
'0:01.324',10.800
'0:01.325',10.900
'0:01.326',10.200
'0:01.327',8.800
'0:01.328',6.800
'0:01.329',4.600
'0:01.330',2.700
'0:01.331',1.600
'0:01.332',1.400
'0:01.333',1.900
'0:01.334',2.300
'0:01.335',2.300
'0:01.336',1.700
'0:01.337',0.900
'0:01.338',0.300
'0:01.339',0.400
'0:01.340',1.000
'0:01.341',1.700
'0:01.342',2.100
'0:01.343',1.900
'0:01.344',1.200
'0:01.345',0.500
'0:01.346',-0.200
'0:01.347',-0.500
'0:01.348',-0.500
'0:01.349',-0.100
'0:01.350',0.600
'0:01.351',1.400
'0:01.352',2.100
'0:01.353',2.600
'0:01.354',2.600
'0:01.355',2.100
'0:01.356',1.500
'0:01.357',0.900
'0:01.358',0.700
'0:01.359',0.700
'0:01.360',0.700
'0:01.361',0.600
'0:01.362',0.300
'0:01.363',0.100
'0:01.364',0.200
'0:01.365',0.700
'0:01.366',1.300
'0:01.367',1.900
'0:01.368',2.200
'0:01.369',2.200
'0:01.370',2.200
'0:01.371',2.200
'0:01.372',2.600
'0:01.373',3.300
'0:01.374',3.900
'0:01.375',4.400
'0:01.376',4.500
'0:01.377',4.300
'0:01.378',4.000
'0:01.379',3.500
'0:01.380',2.900
'0:01.381',2.400
'0:01.382',1.800
'0:01.383',1.400
'0:01.384',1.300
'0:01.385',1.300
'0:01.386',1.400
'0:01.387',1.300
'0:01.388',1.100
'0:01.389',0.800
'0:01.390',0.600
'0:01.391',0.700
'0:01.392',1.100
'0:01.393',1.500
'0:01.394',1.800
'0:01.395',1.800
'0:01.396',1.800
'0:01.397',1.800
'0:01.398',2.100
'0:01.399',2.600
'0:01.400',3.100
'0:01.401',3.300
'0:01.402',3.400
'0:01.403',3.500
'0:01.404',3.700
'0:01.405',4.100
'0:01.406',4.500
'0:01.407',4.600
'0:01.408',4.400
'0:01.409',4.100
'0:01.410',4.100
'0:01.411',4.600
'0:01.412',5.600
'0:01.413',7.000
'0:01.414',8.500
'0:01.415',9.900
'0:01.416',11.400
'0:01.417',13.400
'0:01.418',15.900
'0:01.419',18.800
'0:01.420',21.600
'0:01.421',23.900
'0:01.422',25.100
'0:01.423',25.200
'0:01.424',24.200
'0:01.425',22.500
'0:01.426',20.400
'0:01.427',17.800
'0:01.428',14.800
'0:01.429',11.300
'0:01.430',7.100
'0:01.431',2.500
'0:01.432',-2.500
'0:01.433',-7.600
'0:01.434',-12.300
'0:01.435',-16.500
'0:01.436',-20.200
'0:01.437',-23.700
'0:01.438',-27.600
'0:01.439',-32.000
'0:01.440',-37.201
'0:01.441',-42.701
'0:01.442',-48.101
'0:01.443',-52.701
'0:01.444',-56.101
'0:01.445',-58.201
'0:01.446',-59.201
'0:01.447',-59.501
'0:01.448',-59.601
'0:01.449',-59.501
'0:01.450',-59.101
'0:01.451',-58.101
'0:01.452',-56.301
'0:01.453',-53.701
'0:01.454',-50.201
'0:01.455',-46.201
'0:01.456',-41.901
'0:01.457',-37.201
'0:01.458',-32.500
'0:01.459',-27.800
'0:01.460',-23.200
'0:01.461',-19.100
'0:01.462',-15.700
'0:01.463',-12.900
'0:01.464',-10.700
'0:01.465',-9.100
'0:01.466',-7.800
'0:01.467',-6.600
'0:01.468',-5.400
'0:01.469',-4.200
'0:01.470',-3.200
'0:01.471',-2.500
'0:01.472',-2.200
'0:01.473',-2.200
'0:01.474',-2.400
'0:01.475',-2.600
'0:01.476',-2.600
'0:01.477',-2.600
'0:01.478',-2.500
'0:01.479',-2.300
'0:01.480',-2.000
'0:01.481',-1.400
'0:01.482',-0.500
'0:01.483',0.700
'0:01.484',1.800
'0:01.485',2.600
'0:01.486',3.000
'0:01.487',3.000
'0:01.488',2.900
'0:01.489',3.000
'0:01.490',3.300
'0:01.491',3.500
'0:01.492',3.400
'0:01.493',3.000
'0:01.494',2.300
'0:01.495',1.700
'0:01.496',1.500
'0:01.497',1.700
'0:01.498',2.000
'0:01.499',2.300
'0:01.500',2.300
'0:01.501',1.900
'0:01.502',1.500
'0:01.503',1.100
'0:01.504',0.800
'0:01.505',0.400
'0:01.506',0.100
'0:01.507',-0.300
'0:01.508',-0.500
'0:01.509',-0.300
'0:01.510',0.200
'0:01.511',1.000
'0:01.512',1.800
'0:01.513',2.300
'0:01.514',2.200
'0:01.515',1.600
'0:01.516',0.900
'0:01.517',0.400
'0:01.518',0.500
'0:01.519',1.200
'0:01.520',2.200
'0:01.521',2.900
'0:01.522',2.900
'0:01.523',2.200
'0:01.524',1.000
'0:01.525',-0.200
'0:01.526',-1.000
'0:01.527',-1.000
'0:01.528',-0.100
'0:01.529',1.200
'0:01.530',2.600
'0:01.531',3.900
'0:01.532',4.800
'0:01.533',5.600
'0:01.534',6.200
'0:01.535',6.800
'0:01.536',7.300
'0:01.537',7.500
'0:01.538',7.300
'0:01.539',6.500
'0:01.540',5.400
'0:01.541',4.300
'0:01.542',3.700
'0:01.543',3.500
'0:01.544',3.500
'0:01.545',3.500
'0:01.546',3.200
'0:01.547',2.500
'0:01.548',1.800
'0:01.549',1.200
'0:01.550',1.000
'0:01.551',1.100
'0:01.552',1.100
'0:01.553',0.900
'0:01.554',0.500
'0:01.555',0.100
'0:01.556',-0.300
'0:01.557',-0.500
'0:01.558',-0.800
'0:01.559',-1.500
'0:01.560',-2.500
'0:01.561',-3.700
'0:01.562',-4.800
'0:01.563',-5.300
'0:01.564',-5.300
'0:01.565',-4.800
'0:01.566',-4.100
'0:01.567',-3.300
'0:01.568',-2.200
'0:01.569',-0.900
'0:01.570',0.600
'0:01.571',2.100
'0:01.572',3.400
'0:01.573',4.500
'0:01.574',5.900
'0:01.575',7.800
'0:01.576',10.600
'0:01.577',13.900
'0:01.578',17.000
'0:01.579',18.800
'0:01.580',18.900
'0:01.581',17.600
'0:01.582',15.500
'0:01.583',13.500
'0:01.584',11.900
'0:01.585',10.500
'0:01.586',8.800
'0:01.587',6.300
'0:01.588',3.100
'0:01.589',-0.200
'0:01.590',-2.800
'0:01.591',-4.500
'0:01.592',-5.400
'0:01.593',-6.100
'0:01.594',-6.900
'0:01.595',-7.900
'0:01.596',-9.000
'0:01.597',-9.400
'0:01.598',-8.900
'0:01.599',-7.600
'0:01.600',-5.900
'0:01.601',-4.400
'0:01.602',-3.500
'0:01.603',-3.200
'0:01.604',-3.300
'0:01.605',-3.600
'0:01.606',-4.000
'0:01.607',-4.400
'0:01.608',-5.000
'0:01.609',-5.600
'0:01.610',-5.900
'0:01.611',-5.700
'0:01.612',-5.100
'0:01.613',-4.400
'0:01.614',-4.000
'0:01.615',-4.100
'0:01.616',-4.800
'0:01.617',-5.600
'0:01.618',-6.200
'0:01.619',-6.500
'0:01.620',-6.700
'0:01.621',-7.000
'0:01.622',-7.700
'0:01.623',-8.500
'0:01.624',-9.200
'0:01.625',-9.300
'0:01.626',-8.600
'0:01.627',-7.500
'0:01.628',-6.100
'0:01.629',-5.100
'0:01.630',-4.600
'0:01.631',-4.800
'0:01.632',-5.400
'0:01.633',-6.200
'0:01.634',-7.000
'0:01.635',-7.600
'0:01.636',-8.200
'0:01.637',-8.800
'0:01.638',-9.400
'0:01.639',-10.100
'0:01.640',-10.600
'0:01.641',-10.700
'0:01.642',-10.500
'0:01.643',-10.100
'0:01.644',-9.700
'0:01.645',-9.600
'0:01.646',-9.900
'0:01.647',-10.500
'0:01.648',-11.300
'0:01.649',-12.000
'0:01.650',-12.600
'0:01.651',-13.400
'0:01.652',-14.500
'0:01.653',-15.900
'0:01.654',-17.600
'0:01.655',-19.000
'0:01.656',-19.800
'0:01.657',-19.500
'0:01.658',-18.400
'0:01.659',-17.000
'0:01.660',-15.900
'0:01.661',-15.700
'0:01.662',-16.500
'0:01.663',-17.900
'0:01.664',-19.500
'0:01.665',-20.500
'0:01.666',-20.900
'0:01.667',-20.800
'0:01.668',-20.600
'0:01.669',-20.800
'0:01.670',-21.600
'0:01.671',-22.800
'0:01.672',-23.900
'0:01.673',-24.700
'0:01.674',-24.800
'0:01.675',-24.200
'0:01.676',-23.400
'0:01.677',-22.500
'0:01.678',-21.700
'0:01.679',-21.200
'0:01.680',-20.900
'0:01.681',-20.700
'0:01.682',-20.500
'0:01.683',-20.300
'0:01.684',-20.100
'0:01.685',-19.700
'0:01.686',-19.200
'0:01.687',-18.400
'0:01.688',-17.600
'0:01.689',-17.100
'0:01.690',-16.900
'0:01.691',-17.100
'0:01.692',-17.600
'0:01.693',-18.100
'0:01.694',-18.500
'0:01.695',-18.800
'0:01.696',-19.000
'0:01.697',-19.100
'0:01.698',-18.800
'0:01.699',-18.100
'0:01.700',-16.800
'0:01.701',-15.200
'0:01.702',-13.500
'0:01.703',-12.400
'0:01.704',-11.700
'0:01.705',-11.400
'0:01.706',-11.000
'0:01.707',-10.100
'0:01.708',-8.600
'0:01.709',-6.800
'0:01.710',-5.400
'0:01.711',-4.700
'0:01.712',-4.800
'0:01.713',-5.400
'0:01.714',-5.800
'0:01.715',-5.700
'0:01.716',-5.000
'0:01.717',-4.200
'0:01.718',-3.600
'0:01.719',-3.500
'0:01.720',-3.600
'0:01.721',-3.600
'0:01.722',-2.900
'0:01.723',-1.500
'0:01.724',0.100
'0:01.725',1.400
'0:01.726',1.900
'0:01.727',1.500
'0:01.728',0.600
'0:01.729',0.000
'0:01.730',0.000
'0:01.731',1.000
'0:01.732',2.800
'0:01.733',4.900
'0:01.734',6.900
'0:01.735',8.600
'0:01.736',10.000
'0:01.737',11.200
'0:01.738',12.000
'0:01.739',12.300
'0:01.740',11.800
'0:01.741',10.600
'0:01.742',9.100
'0:01.743',7.700
'0:01.744',6.900
'0:01.745',6.800
'0:01.746',7.200
'0:01.747',7.600
'0:01.748',7.700
'0:01.749',7.400
'0:01.750',6.800
'0:01.751',6.500
'0:01.752',6.600
'0:01.753',7.200
'0:01.754',7.900
'0:01.755',8.500
'0:01.756',8.600
'0:01.757',8.200
'0:01.758',7.700
'0:01.759',7.200
'0:01.760',7.100
'0:01.761',7.400
'0:01.762',7.700
'0:01.763',8.000
'0:01.764',7.900
'0:01.765',7.500
'0:01.766',6.800
'0:01.767',6.200
'0:01.768',6.000
'0:01.769',6.300
'0:01.770',7.000
'0:01.771',7.700
'0:01.772',8.000
'0:01.773',7.900
'0:01.774',7.300
'0:01.775',6.500
'0:01.776',5.700
'0:01.777',5.200
'0:01.778',5.100
'0:01.779',5.100
'0:01.780',5.200
'0:01.781',5.100
'0:01.782',4.700
'0:01.783',4.100
'0:01.784',3.700
'0:01.785',3.800
'0:01.786',4.300
'0:01.787',5.100
'0:01.788',5.800
'0:01.789',6.000
'0:01.790',5.800
'0:01.791',5.400
'0:01.792',5.100
'0:01.793',5.200
'0:01.794',5.500
'0:01.795',5.600
'0:01.796',5.600
'0:01.797',5.500
'0:01.798',5.800
'0:01.799',6.700
'0:01.800',8.000
'0:01.801',9.200
'0:01.802',9.700
'0:01.803',9.000
'0:01.804',7.600
'0:01.805',6.200
'0:01.806',5.300
'0:01.807',5.200
'0:01.808',5.900
'0:01.809',6.900
'0:01.810',8.000
'0:01.811',9.000
'0:01.812',10.000
'0:01.813',11.000
'0:01.814',11.900
'0:01.815',12.500
'0:01.816',12.800
'0:01.817',12.600
'0:01.818',12.200
'0:01.819',11.700
'0:01.820',11.100
'0:01.821',10.700
'0:01.822',10.400
'0:01.823',10.500
'0:01.824',10.800
'0:01.825',11.200
'0:01.826',11.400
'0:01.827',11.000
'0:01.828',10.200
'0:01.829',9.200
'0:01.830',8.500
'0:01.831',8.500
'0:01.832',9.300
'0:01.833',10.500
'0:01.834',11.700
'0:01.835',12.600
'0:01.836',13.200
'0:01.837',13.700
'0:01.838',14.100
'0:01.839',14.500
'0:01.840',14.700
'0:01.841',14.300
'0:01.842',13.200
'0:01.843',11.600
'0:01.844',9.900
'0:01.845',8.300
'0:01.846',7.200
'0:01.847',6.400
'0:01.848',5.900
'0:01.849',5.400
'0:01.850',5.100
'0:01.851',5.000
'0:01.852',5.300
'0:01.853',5.900
'0:01.854',6.600
'0:01.855',7.100
'0:01.856',7.400
'0:01.857',7.400
'0:01.858',7.500
'0:01.859',7.800
'0:01.860',8.300
'0:01.861',8.800
'0:01.862',8.800
'0:01.863',8.200
'0:01.864',7.300
'0:01.865',6.300
'0:01.866',5.700
'0:01.867',5.700
'0:01.868',6.300
'0:01.869',7.000
'0:01.870',7.400
'0:01.871',7.400
'0:01.872',6.900
'0:01.873',6.200
'0:01.874',5.500
'0:01.875',5.200
'0:01.876',5.200
'0:01.877',5.600
'0:01.878',6.000
'0:01.879',6.400
'0:01.880',6.700
'0:01.881',6.900
'0:01.882',7.100
'0:01.883',7.500
'0:01.884',7.900
'0:01.885',8.200
'0:01.886',8.200
'0:01.887',8.000
'0:01.888',7.400
'0:01.889',6.700
'0:01.890',6.000
'0:01.891',5.600
'0:01.892',5.600
'0:01.893',6.100
'0:01.894',6.800
'0:01.895',7.500
'0:01.896',7.900
'0:01.897',7.800
'0:01.898',7.100
'0:01.899',6.400
'0:01.900',5.900
'0:01.901',6.200
'0:01.902',7.000
'0:01.903',8.000
'0:01.904',8.500
'0:01.905',8.300
'0:01.906',7.300
'0:01.907',6.100
'0:01.908',5.100
'0:01.909',4.800
'0:01.910',5.300
'0:01.911',6.400
'0:01.912',7.700
'0:01.913',8.700
'0:01.914',9.300
'0:01.915',9.400
'0:01.916',9.100
'0:01.917',8.500
'0:01.918',7.900
'0:01.919',7.300
'0:01.920',6.900
'0:01.921',6.700
'0:01.922',6.700
'0:01.923',6.700
'0:01.924',6.700
'0:01.925',6.400
'0:01.926',6.000
'0:01.927',5.300
'0:01.928',4.600
'0:01.929',4.000
'0:01.930',3.900
'0:01.931',4.500
'0:01.932',5.800
'0:01.933',7.600
'0:01.934',9.500
'0:01.935',10.900
'0:01.936',11.900
'0:01.937',12.400
'0:01.938',12.900
'0:01.939',13.500
'0:01.940',14.000
'0:01.941',14.000
'0:01.942',13.100
'0:01.943',11.300
'0:01.944',9.000
'0:01.945',7.000
'0:01.946',5.700
'0:01.947',5.400
'0:01.948',5.700
'0:01.949',5.900
'0:01.950',5.800
'0:01.951',5.100
'0:01.952',4.400
'0:01.953',4.000
'0:01.954',4.200
'0:01.955',4.800
'0:01.956',5.600
'0:01.957',6.100
'0:01.958',6.200
'0:01.959',5.800
'0:01.960',5.300
'0:01.961',4.800
'0:01.962',4.700
'0:01.963',4.900
'0:01.964',5.300
'0:01.965',5.700
'0:01.966',5.700
'0:01.967',5.300
'0:01.968',4.500
'0:01.969',3.600
'0:01.970',2.800
'0:01.971',2.300
'0:01.972',2.100
'0:01.973',2.300
'0:01.974',2.500
'0:01.975',2.900
'0:01.976',3.200
'0:01.977',3.500
'0:01.978',3.700
'0:01.979',4.000
'0:01.980',4.300
'0:01.981',4.800
'0:01.982',5.400
'0:01.983',5.800
'0:01.984',5.900
'0:01.985',5.600
'0:01.986',5.100
'0:01.987',4.700
'0:01.988',4.700
'0:01.989',5.100
'0:01.990',5.500
'0:01.991',5.600
'0:01.992',5.100
'0:01.993',4.100
'0:01.994',3.200
'0:01.995',2.900
'0:01.996',3.500
'0:01.997',4.600
'0:01.998',5.800
'0:01.999',6.600
'0:02.000',6.700
'0:02.001',6.300
'0:02.002',5.700
'0:02.003',5.200
'0:02.004',5.000
'0:02.005',5.000
'0:02.006',5.100
'0:02.007',5.300
'0:02.008',5.600
'0:02.009',6.100
'0:02.010',6.500
'0:02.011',6.700
'0:02.012',6.600
'0:02.013',6.200
'0:02.014',5.700
'0:02.015',5.400
'0:02.016',5.500
'0:02.017',5.700
'0:02.018',6.000
'0:02.019',5.900
'0:02.020',5.500
'0:02.021',4.900
'0:02.022',4.300
'0:02.023',3.700
'0:02.024',3.300
'0:02.025',3.000
'0:02.026',2.500
'0:02.027',2.200
'0:02.028',2.200
'0:02.029',2.600
'0:02.030',3.400
'0:02.031',4.400
'0:02.032',5.100
'0:02.033',5.400
'0:02.034',5.200
'0:02.035',4.800
'0:02.036',4.400
'0:02.037',4.100
'0:02.038',4.000
'0:02.039',4.300
'0:02.040',5.100
'0:02.041',7.000
'0:02.042',9.800
'0:02.043',13.600
'0:02.044',17.300
'0:02.045',20.200
'0:02.046',21.400
'0:02.047',20.800
'0:02.048',18.900
'0:02.049',16.500
'0:02.050',14.400
'0:02.051',12.900
'0:02.052',11.500
'0:02.053',9.600
'0:02.054',6.800
'0:02.055',3.200
'0:02.056',-0.800
'0:02.057',-4.400
'0:02.058',-6.700
'0:02.059',-7.700
'0:02.060',-7.400
'0:02.061',-6.400
'0:02.062',-5.400
'0:02.063',-4.500
'0:02.064',-3.700
'0:02.065',-3.000
'0:02.066',-2.200
'0:02.067',-1.400
'0:02.068',-0.600
'0:02.069',0.100
'0:02.070',0.700
'0:02.071',1.300
'0:02.072',2.000
'0:02.073',2.700
'0:02.074',3.400
'0:02.075',3.900
'0:02.076',4.100
'0:02.077',4.100
'0:02.078',4.100
'0:02.079',4.100
'0:02.080',4.200
'0:02.081',4.100
'0:02.082',4.000
'0:02.083',3.900
'0:02.084',3.900
'0:02.085',4.300
'0:02.086',4.900
'0:02.087',5.600
'0:02.088',5.900
'0:02.089',5.900
'0:02.090',5.400
'0:02.091',4.700
'0:02.092',4.100
'0:02.093',3.600
'0:02.094',3.400
'0:02.095',3.400
'0:02.096',3.500
'0:02.097',3.800
'0:02.098',4.300
'0:02.099',4.700
'0:02.100',4.900
'0:02.101',4.700
'0:02.102',4.300
'0:02.103',3.700
'0:02.104',3.300
'0:02.105',3.100
'0:02.106',3.300
'0:02.107',3.500
'0:02.108',3.600
'0:02.109',3.300
'0:02.110',3.000
'0:02.111',2.700
'0:02.112',2.600
'0:02.113',2.700
'0:02.114',2.900
'0:02.115',2.800
'0:02.116',2.500
'0:02.117',2.100
'0:02.118',1.800
'0:02.119',1.800
'0:02.120',2.100
'0:02.121',2.500
'0:02.122',2.900
'0:02.123',3.100
'0:02.124',3.400
'0:02.125',3.700
'0:02.126',4.300
'0:02.127',5.000
'0:02.128',5.500
'0:02.129',5.900
'0:02.130',6.100
'0:02.131',6.500
'0:02.132',7.100
'0:02.133',8.100
'0:02.134',9.200
'0:02.135',9.900
'0:02.136',10.100
'0:02.137',9.800
'0:02.138',9.400
'0:02.139',9.100
'0:02.140',9.300
'0:02.141',9.900
'0:02.142',10.600
'0:02.143',11.400
'0:02.144',12.300
'0:02.145',13.400
'0:02.146',15.100
'0:02.147',17.200
'0:02.148',19.200
'0:02.149',20.500
'0:02.150',20.700
'0:02.151',19.900
'0:02.152',18.300
'0:02.153',16.200
'0:02.154',13.800
'0:02.155',11.000
'0:02.156',7.600
'0:02.157',3.500
'0:02.158',-1.100
'0:02.159',-6.000
'0:02.160',-11.100
'0:02.161',-16.400
'0:02.162',-22.100
'0:02.163',-28.200
'0:02.164',-34.301
'0:02.165',-40.001
'0:02.166',-44.701
'0:02.167',-48.601
'0:02.168',-52.001
'0:02.169',-55.401
'0:02.170',-59.001
'0:02.171',-62.801
'0:02.172',-66.001
'0:02.173',-67.901
'0:02.174',-68.201
'0:02.175',-67.001
'0:02.176',-64.701
'0:02.177',-61.901
'0:02.178',-58.901
'0:02.179',-55.801
'0:02.180',-52.301
'0:02.181',-48.201
'0:02.182',-43.401
'0:02.183',-38.001
'0:02.184',-32.300
'0:02.185',-26.700
'0:02.186',-21.500
'0:02.187',-17.000
'0:02.188',-13.300
'0:02.189',-10.600
'0:02.190',-8.800
'0:02.191',-7.500
'0:02.192',-6.300
'0:02.193',-5.100
'0:02.194',-3.600
'0:02.195',-2.200
'0:02.196',-0.900
'0:02.197',-0.200
'0:02.198',0.000
'0:02.199',-0.300
'0:02.200',-0.700
'0:02.201',-1.100
'0:02.202',-1.300
'0:02.203',-1.300
'0:02.204',-1.200
'0:02.205',-1.100
'0:02.206',-1.100
'0:02.207',-1.100
'0:02.208',-1.200
'0:02.209',-1.200
'0:02.210',-1.100
'0:02.211',-0.800
'0:02.212',-0.300
'0:02.213',0.500
'0:02.214',1.200
'0:02.215',1.600
'0:02.216',1.600
'0:02.217',1.100
'0:02.218',0.500
'0:02.219',0.200
'0:02.220',0.700
'0:02.221',2.000
'0:02.222',3.800
'0:02.223',5.500
'0:02.224',6.700
'0:02.225',7.300
'0:02.226',7.300
'0:02.227',7.300
'0:02.228',7.400
'0:02.229',7.500
'0:02.230',7.200
'0:02.231',6.400
'0:02.232',5.200
'0:02.233',3.900
'0:02.234',3.000
'0:02.235',2.700
'0:02.236',2.700
'0:02.237',2.500
'0:02.238',1.800
'0:02.239',0.500
'0:02.240',-0.700
'0:02.241',-1.500
'0:02.242',-1.500
'0:02.243',-0.800
'0:02.244',0.100
'0:02.245',0.700
'0:02.246',0.800
'0:02.247',0.600
'0:02.248',0.300
'0:02.249',0.000
'0:02.250',-0.500
'0:02.251',-1.400
'0:02.252',-2.600
'0:02.253',-3.800
'0:02.254',-4.400
'0:02.255',-4.000
'0:02.256',-2.700
'0:02.257',-0.900
'0:02.258',0.500
'0:02.259',1.100
'0:02.260',0.800
'0:02.261',0.100
'0:02.262',-0.500
'0:02.263',-0.500
'0:02.264',0.200
'0:02.265',1.300
'0:02.266',2.200
'0:02.267',2.600
'0:02.268',2.100
'0:02.269',1.000
'0:02.270',-0.400
'0:02.271',-1.700
'0:02.272',-2.600
'0:02.273',-3.100
'0:02.274',-3.300
'0:02.275',-3.400
'0:02.276',-3.400
'0:02.277',-3.400
'0:02.278',-3.300
'0:02.279',-3.100
'0:02.280',-2.600
'0:02.281',-1.900
'0:02.282',-1.400
'0:02.283',-1.100
'0:02.284',-1.200
'0:02.285',-1.600
'0:02.286',-2.100
'0:02.287',-2.500
'0:02.288',-2.600
'0:02.289',-2.400
'0:02.290',-2.200
'0:02.291',-2.100
'0:02.292',-2.300
'0:02.293',-2.500
'0:02.294',-2.500
'0:02.295',-2.000
'0:02.296',-1.500
'0:02.297',-1.100
'0:02.298',-1.300
'0:02.299',-2.000
'0:02.300',-3.000
'0:02.301',-3.700
'0:02.302',-3.700
'0:02.303',-3.300
'0:02.304',-2.900
'0:02.305',-3.100
'0:02.306',-3.700
'0:02.307',-4.500
'0:02.308',-4.600
'0:02.309',-4.000
'0:02.310',-2.600
'0:02.311',-1.200
'0:02.312',-0.400
'0:02.313',-0.500
'0:02.314',-1.300
'0:02.315',-2.300
'0:02.316',-3.000
'0:02.317',-3.300
'0:02.318',-3.500
'0:02.319',-3.800
'0:02.320',-4.400
'0:02.321',-5.200
'0:02.322',-5.900
'0:02.323',-6.300
'0:02.324',-6.300
'0:02.325',-6.200
'0:02.326',-6.000
'0:02.327',-5.800
'0:02.328',-5.300
'0:02.329',-4.600
'0:02.330',-3.800
'0:02.331',-3.000
'0:02.332',-2.600
'0:02.333',-2.600
'0:02.334',-2.600
'0:02.335',-2.500
'0:02.336',-2.200
'0:02.337',-2.000
'0:02.338',-2.300
'0:02.339',-3.500
'0:02.340',-5.400
'0:02.341',-7.500
'0:02.342',-8.800
'0:02.343',-9.100
'0:02.344',-8.300
'0:02.345',-7.300
'0:02.346',-6.700
'0:02.347',-7.000
'0:02.348',-8.100
'0:02.349',-9.500
'0:02.350',-10.600
'0:02.351',-11.300
'0:02.352',-11.800
'0:02.353',-12.200
'0:02.354',-12.700
'0:02.355',-13.400
'0:02.356',-14.100
'0:02.357',-14.700
'0:02.358',-15.200
'0:02.359',-15.800
'0:02.360',-16.400
'0:02.361',-16.800
'0:02.362',-16.900
'0:02.363',-16.500
'0:02.364',-15.700
'0:02.365',-14.900
'0:02.366',-14.500
'0:02.367',-14.700
'0:02.368',-15.200
'0:02.369',-15.900
'0:02.370',-16.500
'0:02.371',-16.900
'0:02.372',-17.200
'0:02.373',-17.300
'0:02.374',-17.400
'0:02.375',-17.300
'0:02.376',-17.100
'0:02.377',-17.000
'0:02.378',-17.000
'0:02.379',-17.200
'0:02.380',-17.300
'0:02.381',-17.300
'0:02.382',-17.100
'0:02.383',-16.900
'0:02.384',-17.000
'0:02.385',-17.600
'0:02.386',-18.700
'0:02.387',-19.900
'0:02.388',-20.900
'0:02.389',-21.300
'0:02.390',-21.300
'0:02.391',-21.100
'0:02.392',-21.000
'0:02.393',-21.000
'0:02.394',-21.100
'0:02.395',-21.000
'0:02.396',-20.900
'0:02.397',-20.900
'0:02.398',-21.200
'0:02.399',-21.700
'0:02.400',-22.300
'0:02.401',-22.600
'0:02.402',-22.600
'0:02.403',-22.300
'0:02.404',-21.900
'0:02.405',-21.700
'0:02.406',-21.700
'0:02.407',-21.600
'0:02.408',-21.300
'0:02.409',-20.800
'0:02.410',-20.500
'0:02.411',-20.500
'0:02.412',-21.000
'0:02.413',-21.700
'0:02.414',-22.100
'0:02.415',-22.000
'0:02.416',-21.400
'0:02.417',-20.600
'0:02.418',-19.800
'0:02.419',-19.400
'0:02.420',-19.300
'0:02.421',-19.300
'0:02.422',-19.000
'0:02.423',-18.400
'0:02.424',-17.500
'0:02.425',-16.400
'0:02.426',-15.200
'0:02.427',-14.000
'0:02.428',-12.900
'0:02.429',-11.800
'0:02.430',-10.800
'0:02.431',-10.100
'0:02.432',-9.700
'0:02.433',-9.500
'0:02.434',-9.200
'0:02.435',-8.600
'0:02.436',-7.300
'0:02.437',-5.400
'0:02.438',-3.100
'0:02.439',-0.900
'0:02.440',0.800
'0:02.441',1.600
'0:02.442',1.700
'0:02.443',1.500
'0:02.444',1.500
'0:02.445',1.800
'0:02.446',2.500
'0:02.447',3.000
'0:02.448',2.900
'0:02.449',2.200
'0:02.450',1.200
'0:02.451',0.300
'0:02.452',0.200
'0:02.453',0.700
'0:02.454',1.800
'0:02.455',2.800
'0:02.456',3.500
'0:02.457',3.800
'0:02.458',3.800
'0:02.459',3.900
'0:02.460',3.900
'0:02.461',4.100
'0:02.462',4.200
'0:02.463',4.100
'0:02.464',3.900
'0:02.465',3.700
'0:02.466',3.600
'0:02.467',3.700
'0:02.468',3.800
'0:02.469',3.900
'0:02.470',4.000
'0:02.471',4.000
'0:02.472',3.900
'0:02.473',3.800
'0:02.474',3.600
'0:02.475',3.400
'0:02.476',3.200
'0:02.477',3.100
'0:02.478',3.200
'0:02.479',3.400
'0:02.480',3.800
'0:02.481',4.200
'0:02.482',4.700
'0:02.483',5.100
'0:02.484',5.200
'0:02.485',5.100
'0:02.486',4.900
'0:02.487',4.700
'0:02.488',4.500
'0:02.489',4.300
'0:02.490',4.000
'0:02.491',3.600
'0:02.492',3.100
'0:02.493',2.600
'0:02.494',2.100
'0:02.495',1.600
'0:02.496',1.200
'0:02.497',0.900
'0:02.498',0.800
'0:02.499',1.100
'0:02.500',1.700
'0:02.501',2.700
'0:02.502',3.900
'0:02.503',5.000
'0:02.504',6.000
'0:02.505',7.200
'0:02.506',8.800
'0:02.507',11.400
'0:02.508',14.800
'0:02.509',18.500
'0:02.510',21.600
'0:02.511',23.500
'0:02.512',23.600
'0:02.513',22.000
'0:02.514',19.300
'0:02.515',16.200
'0:02.516',13.100
'0:02.517',10.100
'0:02.518',7.200
'0:02.519',4.300
'0:02.520',1.400
'0:02.521',-1.300
'0:02.522',-3.400
'0:02.523',-4.800
'0:02.524',-5.400
'0:02.525',-5.300
'0:02.526',-4.600
'0:02.527',-3.500
'0:02.528',-2.400
'0:02.529',-1.200
'0:02.530',-0.100
'0:02.531',0.900
'0:02.532',1.700
'0:02.533',2.500
'0:02.534',3.400
'0:02.535',4.400
'0:02.536',5.400
'0:02.537',6.300
'0:02.538',6.800
'0:02.539',6.900
'0:02.540',6.700
'0:02.541',6.500
'0:02.542',6.400
'0:02.543',6.500
'0:02.544',6.900
'0:02.545',7.300
'0:02.546',7.800
'0:02.547',8.300
'0:02.548',8.600
'0:02.549',8.900
'0:02.550',8.900
'0:02.551',8.700
'0:02.552',8.300
'0:02.553',7.600
'0:02.554',6.600
'0:02.555',5.400
'0:02.556',4.300
'0:02.557',3.300
'0:02.558',2.700
'0:02.559',2.600
'0:02.560',2.800
'0:02.561',3.100
'0:02.562',3.400
'0:02.563',3.600
'0:02.564',3.600
'0:02.565',3.700
'0:02.566',3.900
'0:02.567',4.300
'0:02.568',4.700
'0:02.569',5.000
'0:02.570',5.100
'0:02.571',5.200
'0:02.572',5.300
'0:02.573',5.400
'0:02.574',5.400
'0:02.575',5.100
'0:02.576',4.700
'0:02.577',4.100
'0:02.578',3.600
'0:02.579',3.200
'0:02.580',2.900
'0:02.581',2.800
'0:02.582',2.700
'0:02.583',2.600
'0:02.584',2.400
'0:02.585',2.100
'0:02.586',1.700
'0:02.587',1.600
'0:02.588',1.700
'0:02.589',2.200
'0:02.590',3.100
'0:02.591',4.000
'0:02.592',4.700
'0:02.593',4.800
'0:02.594',4.100
'0:02.595',3.000
'0:02.596',1.900
'0:02.597',1.300
'0:02.598',1.300
'0:02.599',1.900
'0:02.600',2.600
'0:02.601',3.000
'0:02.602',3.000
'0:02.603',2.700
'0:02.604',2.300
'0:02.605',2.000
'0:02.606',2.000
'0:02.607',2.100
'0:02.608',2.100
'0:02.609',2.100
'0:02.610',2.100
'0:02.611',2.200
'0:02.612',2.700
'0:02.613',3.300
'0:02.614',3.900
'0:02.615',4.200
'0:02.616',4.000
'0:02.617',3.500
'0:02.618',2.900
'0:02.619',2.500
'0:02.620',2.300
'0:02.621',2.300
'0:02.622',2.300
'0:02.623',2.200
'0:02.624',2.200
'0:02.625',2.400
'0:02.626',2.600
'0:02.627',2.900
'0:02.628',2.900
'0:02.629',2.700
'0:02.630',2.500
'0:02.631',2.300
'0:02.632',2.500
'0:02.633',2.900
'0:02.634',3.200
'0:02.635',3.300
'0:02.636',3.000
'0:02.637',2.700
'0:02.638',2.800
'0:02.639',3.500
'0:02.640',4.400
'0:02.641',5.300
'0:02.642',5.600
'0:02.643',5.000
'0:02.644',3.900
'0:02.645',2.800
'0:02.646',2.200
'0:02.647',2.100
'0:02.648',2.300
'0:02.649',2.700
'0:02.650',2.800
'0:02.651',2.700
'0:02.652',2.600
'0:02.653',2.800
'0:02.654',3.300
'0:02.655',4.000
'0:02.656',4.700
'0:02.657',5.300
'0:02.658',5.700
'0:02.659',6.100
'0:02.660',6.600
'0:02.661',7.300
'0:02.662',8.100
'0:02.663',8.600
'0:02.664',8.600
'0:02.665',7.800
'0:02.666',6.100
'0:02.667',3.900
'0:02.668',1.700
'0:02.669',-0.200
'0:02.670',-1.200
'0:02.671',-1.500
'0:02.672',-1.200
'0:02.673',-0.700
'0:02.674',-0.200
'0:02.675',0.200
'0:02.676',0.700
'0:02.677',1.300
'0:02.678',1.900
'0:02.679',2.300
'0:02.680',2.200
'0:02.681',1.800
'0:02.682',1.400
'0:02.683',1.100
'0:02.684',1.200
'0:02.685',1.500
'0:02.686',1.600
'0:02.687',1.200
'0:02.688',0.500
'0:02.689',-0.400
'0:02.690',-1.000
'0:02.691',-1.300
'0:02.692',-1.400
'0:02.693',-1.600
'0:02.694',-2.100
'0:02.695',-2.500
'0:02.696',-2.500
'0:02.697',-2.000
'0:02.698',-1.000
'0:02.699',0.200
'0:02.700',1.000
'0:02.701',1.200
'0:02.702',0.800
'0:02.703',0.200
'0:02.704',-0.200
'0:02.705',-0.200
'0:02.706',0.100
'0:02.707',0.700
'0:02.708',1.300
'0:02.709',1.800
'0:02.710',2.100
'0:02.711',2.000
'0:02.712',1.500
'0:02.713',0.800
'0:02.714',0.100
'0:02.715',-0.400
'0:02.716',-0.300
'0:02.717',0.100
'0:02.718',0.800
'0:02.719',1.300
'0:02.720',1.700
'0:02.721',1.800
'0:02.722',2.000
'0:02.723',2.300
'0:02.724',2.600
'0:02.725',2.400
'0:02.726',1.400
'0:02.727',-0.200
'0:02.728',-2.000
'0:02.729',-3.200
'0:02.730',-3.200
'0:02.731',-2.000
'0:02.732',-0.200
'0:02.733',1.200
'0:02.734',1.800
'0:02.735',1.500
'0:02.736',0.800
'0:02.737',0.000
'0:02.738',-0.300
'0:02.739',-0.400
'0:02.740',-0.500
'0:02.741',-0.800
'0:02.742',-1.400
'0:02.743',-1.900
'0:02.744',-2.200
'0:02.745',-2.200
'0:02.746',-2.000
'0:02.747',-1.900
'0:02.748',-1.800
'0:02.749',-1.800
'0:02.750',-1.600
'0:02.751',-1.000
'0:02.752',-0.200
'0:02.753',0.900
'0:02.754',2.100
'0:02.755',3.100
'0:02.756',3.900
'0:02.757',4.000
'0:02.758',3.500
'0:02.759',2.200
'0:02.760',0.400
'0:02.761',-1.500
'0:02.762',-3.000
'0:02.763',-3.800
'0:02.764',-3.800
'0:02.765',-3.400
'0:02.766',-3.000
'0:02.767',-2.700
'0:02.768',-2.600
'0:02.769',-2.500
'0:02.770',-2.300
'0:02.771',-2.000
'0:02.772',-1.900
'0:02.773',-2.000
'0:02.774',-2.300
'0:02.775',-2.700
'0:02.776',-3.200
'0:02.777',-3.400
'0:02.778',-3.600
'0:02.779',-3.600
'0:02.780',-3.500
'0:02.781',-3.300
'0:02.782',-2.900
'0:02.783',-2.400
'0:02.784',-1.800
'0:02.785',-1.300
'0:02.786',-1.000
'0:02.787',-1.000
'0:02.788',-1.200
'0:02.789',-1.700
'0:02.790',-2.400
'0:02.791',-3.100
'0:02.792',-3.700
'0:02.793',-4.000
'0:02.794',-3.900
'0:02.795',-3.400
'0:02.796',-2.700
'0:02.797',-1.900
'0:02.798',-1.200
'0:02.799',-0.800
'0:02.800',-0.500
'0:02.801',-0.300
'0:02.802',-0.300
'0:02.803',-0.300
'0:02.804',-0.400
'0:02.805',-0.500
'0:02.806',-0.500
'0:02.807',-0.100
'0:02.808',0.400
'0:02.809',1.000
'0:02.810',1.300
'0:02.811',1.100
'0:02.812',0.500
'0:02.813',-0.500
'0:02.814',-1.300
'0:02.815',-1.800
'0:02.816',-1.700
'0:02.817',-1.300
'0:02.818',-0.700
'0:02.819',-0.200
'0:02.820',0.000
'0:02.821',-0.100
'0:02.822',-0.500
'0:02.823',-1.100
'0:02.824',-1.800
'0:02.825',-2.500
'0:02.826',-3.000
'0:02.827',-3.200
'0:02.828',-3.200
'0:02.829',-3.000
'0:02.830',-2.800
'0:02.831',-2.700
'0:02.832',-2.700
'0:02.833',-2.600
'0:02.834',-2.600
'0:02.835',-2.500
'0:02.836',-2.400
'0:02.837',-2.000
'0:02.838',-1.300
'0:02.839',-0.100
'0:02.840',1.500
'0:02.841',3.500
'0:02.842',5.400
'0:02.843',7.100
'0:02.844',8.600
'0:02.845',9.800
'0:02.846',11.200
'0:02.847',12.800
'0:02.848',14.400
'0:02.849',15.500
'0:02.850',15.900
'0:02.851',15.400
'0:02.852',14.000
'0:02.853',12.000
'0:02.854',9.600
'0:02.855',6.800
'0:02.856',3.700
'0:02.857',0.000
'0:02.858',-4.100
'0:02.859',-8.800
'0:02.860',-13.800
'0:02.861',-18.900
'0:02.862',-24.000
'0:02.863',-29.200
'0:02.864',-34.301
'0:02.865',-39.401
'0:02.866',-44.201
'0:02.867',-48.801
'0:02.868',-53.001
'0:02.869',-56.601
'0:02.870',-59.501
'0:02.871',-61.701
'0:02.872',-63.001
'0:02.873',-63.401
'0:02.874',-62.901
'0:02.875',-61.601
'0:02.876',-59.801
'0:02.877',-57.801
'0:02.878',-55.801
'0:02.879',-54.101
'0:02.880',-52.401
'0:02.881',-50.401
'0:02.882',-47.601
'0:02.883',-43.901
'0:02.884',-39.401
'0:02.885',-34.401
'0:02.886',-29.500
'0:02.887',-25.100
'0:02.888',-21.500
'0:02.889',-18.700
'0:02.890',-16.600
'0:02.891',-14.900
'0:02.892',-13.300
'0:02.893',-11.700
'0:02.894',-10.100
'0:02.895',-8.800
'0:02.896',-8.000
'0:02.897',-7.800
'0:02.898',-8.000
'0:02.899',-8.200
'0:02.900',-8.100
'0:02.901',-7.400
'0:02.902',-6.500
'0:02.903',-5.600
'0:02.904',-5.100
'0:02.905',-5.100
'0:02.906',-5.400
'0:02.907',-5.700
'0:02.908',-5.700
'0:02.909',-5.300
'0:02.910',-4.700
'0:02.911',-4.000
'0:02.912',-3.300
'0:02.913',-2.800
'0:02.914',-2.500
'0:02.915',-2.400
'0:02.916',-2.600
'0:02.917',-2.800
'0:02.918',-2.900
'0:02.919',-2.800
'0:02.920',-2.400
'0:02.921',-2.100
'0:02.922',-1.900
'0:02.923',-2.100
'0:02.924',-2.500
'0:02.925',-3.100
'0:02.926',-3.500
'0:02.927',-3.600
'0:02.928',-3.400
'0:02.929',-3.100
'0:02.930',-2.700
'0:02.931',-2.400
'0:02.932',-2.000
'0:02.933',-1.500
'0:02.934',-1.000
'0:02.935',-0.500
'0:02.936',-0.200
'0:02.937',-0.300
'0:02.938',-0.700
'0:02.939',-1.100
'0:02.940',-1.500
'0:02.941',-1.500
'0:02.942',-1.200
'0:02.943',-1.000
'0:02.944',-1.000
'0:02.945',-1.300
'0:02.946',-1.800
'0:02.947',-2.000
'0:02.948',-1.800
'0:02.949',-1.100
'0:02.950',-0.200
'0:02.951',0.500
'0:02.952',0.900
'0:02.953',0.800
'0:02.954',0.500
'0:02.955',0.100
'0:02.956',0.000
'0:02.957',0.000
'0:02.958',0.000
'0:02.959',-0.400
'0:02.960',-1.300
'0:02.961',-2.600
'0:02.962',-4.000
'0:02.963',-5.100
'0:02.964',-5.600
'0:02.965',-5.800
'0:02.966',-5.700
'0:02.967',-5.500
'0:02.968',-5.100
'0:02.969',-4.600
'0:02.970',-3.600
'0:02.971',-2.200
'0:02.972',-0.300
'0:02.973',2.000
'0:02.974',4.500
'0:02.975',7.400
'0:02.976',10.500
'0:02.977',13.700
'0:02.978',16.600
'0:02.979',18.700
'0:02.980',19.600
'0:02.981',19.200
'0:02.982',17.700
'0:02.983',15.500
'0:02.984',13.000
'0:02.985',10.500
'0:02.986',8.000
'0:02.987',5.400
'0:02.988',2.700
'0:02.989',0.000
'0:02.990',-2.300
'0:02.991',-3.800
'0:02.992',-4.400
'0:02.993',-4.100
'0:02.994',-3.300
'0:02.995',-2.400
'0:02.996',-1.500
'0:02.997',-0.700
'0:02.998',0.100
'0:02.999',0.800
'0:03.000',1.300
'0:03.001',1.400
'0:03.002',0.900
'0:03.003',-0.300
'0:03.004',-1.600
'0:03.005',-2.700
'0:03.006',-3.100
'0:03.007',-2.900
'0:03.008',-2.400
'0:03.009',-2.000
'0:03.010',-2.000
'0:03.011',-2.600
'0:03.012',-3.400
'0:03.013',-4.300
'0:03.014',-5.100
'0:03.015',-5.900
'0:03.016',-6.600
'0:03.017',-7.000
'0:03.018',-7.200
'0:03.019',-7.000
'0:03.020',-6.600
'0:03.021',-6.400
'0:03.022',-6.500
'0:03.023',-7.000
'0:03.024',-7.700
'0:03.025',-8.400
'0:03.026',-9.000
'0:03.027',-9.300
'0:03.028',-9.700
'0:03.029',-10.200
'0:03.030',-10.600
'0:03.031',-11.000
'0:03.032',-11.100
'0:03.033',-11.100
'0:03.034',-11.100
'0:03.035',-11.400
'0:03.036',-11.800
'0:03.037',-12.100
'0:03.038',-11.900
'0:03.039',-11.100
'0:03.040',-10.200
'0:03.041',-9.400
'0:03.042',-9.300
'0:03.043',-9.700
'0:03.044',-10.200
'0:03.045',-10.600
'0:03.046',-10.400
'0:03.047',-9.900
'0:03.048',-9.400
'0:03.049',-9.300
'0:03.050',-9.800
'0:03.051',-10.600
'0:03.052',-11.200
'0:03.053',-11.300
'0:03.054',-10.800
'0:03.055',-9.900
'0:03.056',-9.000
'0:03.057',-8.800
'0:03.058',-9.300
'0:03.059',-10.400
'0:03.060',-11.600
'0:03.061',-12.500
'0:03.062',-12.800
'0:03.063',-12.500
'0:03.064',-12.000
'0:03.065',-11.700
'0:03.066',-11.800
'0:03.067',-12.200
'0:03.068',-12.900
'0:03.069',-13.500
'0:03.070',-13.900
'0:03.071',-13.900
'0:03.072',-13.800
'0:03.073',-13.600
'0:03.074',-13.400
'0:03.075',-13.100
'0:03.076',-12.700
'0:03.077',-12.300
'0:03.078',-12.000
'0:03.079',-12.000
'0:03.080',-12.400
'0:03.081',-13.200
'0:03.082',-14.300
'0:03.083',-15.300
'0:03.084',-16.000
'0:03.085',-16.500
'0:03.086',-16.700
'0:03.087',-17.000
'0:03.088',-17.400
'0:03.089',-17.900
'0:03.090',-18.400
'0:03.091',-18.600
'0:03.092',-18.400
'0:03.093',-17.900
'0:03.094',-17.300
'0:03.095',-17.100
'0:03.096',-17.300
'0:03.097',-18.100
'0:03.098',-19.000
'0:03.099',-19.700
'0:03.100',-19.800
'0:03.101',-19.300
'0:03.102',-18.400
'0:03.103',-17.200
'0:03.104',-16.200
'0:03.105',-15.400
'0:03.106',-14.800
'0:03.107',-14.500
'0:03.108',-14.400
'0:03.109',-14.500
'0:03.110',-14.800
'0:03.111',-15.300
'0:03.112',-15.800
'0:03.113',-16.200
'0:03.114',-16.600
'0:03.115',-16.900
'0:03.116',-17.200
'0:03.117',-17.600
'0:03.118',-18.000
'0:03.119',-18.100
'0:03.120',-17.900
'0:03.121',-17.200
'0:03.122',-16.200
'0:03.123',-15.300
'0:03.124',-14.700
'0:03.125',-14.600
'0:03.126',-14.900
'0:03.127',-15.500
'0:03.128',-16.000
'0:03.129',-16.100
'0:03.130',-15.900
'0:03.131',-15.400
'0:03.132',-14.800
'0:03.133',-14.100
'0:03.134',-13.200
'0:03.135',-12.300
'0:03.136',-11.200
'0:03.137',-9.900
'0:03.138',-8.600
'0:03.139',-7.000
'0:03.140',-5.200
'0:03.141',-3.400
'0:03.142',-1.800
'0:03.143',-1.000
'0:03.144',-0.900
'0:03.145',-1.500
'0:03.146',-2.200
'0:03.147',-2.400
'0:03.148',-2.000
'0:03.149',-1.100
'0:03.150',-0.500
'0:03.151',-0.400
'0:03.152',-1.000
'0:03.153',-1.800
'0:03.154',-2.300
'0:03.155',-2.100
'0:03.156',-1.500
'0:03.157',-0.900
'0:03.158',-0.700
'0:03.159',-0.800
'0:03.160',-1.000
'0:03.161',-0.500
'0:03.162',0.700
'0:03.163',2.400
'0:03.164',4.100
'0:03.165',5.100
'0:03.166',5.100
'0:03.167',4.400
'0:03.168',3.500
'0:03.169',3.000
'0:03.170',3.100
'0:03.171',3.700
'0:03.172',4.600
'0:03.173',5.600
'0:03.174',6.300
'0:03.175',6.800
'0:03.176',7.000
'0:03.177',6.900
'0:03.178',6.600
'0:03.179',6.100
'0:03.180',5.600
'0:03.181',4.900
'0:03.182',4.400
'0:03.183',3.900
'0:03.184',3.700
'0:03.185',3.700
'0:03.186',4.000
'0:03.187',4.400
'0:03.188',4.600
'0:03.189',4.600
'0:03.190',4.200
'0:03.191',3.800
'0:03.192',3.500
'0:03.193',3.500
'0:03.194',3.800
'0:03.195',4.300
'0:03.196',4.700
'0:03.197',4.800
'0:03.198',4.600
'0:03.199',4.100
'0:03.200',3.800
'0:03.201',3.700
'0:03.202',3.900
'0:03.203',4.400
'0:03.204',4.900
'0:03.205',5.100
'0:03.206',4.800
'0:03.207',4.000
'0:03.208',3.100
'0:03.209',2.300
'0:03.210',2.000
'0:03.211',2.100
'0:03.212',2.500
'0:03.213',3.000
'0:03.214',3.300
'0:03.215',3.400
'0:03.216',3.400
'0:03.217',3.400
'0:03.218',3.300
'0:03.219',3.100
'0:03.220',3.000
'0:03.221',3.100
'0:03.222',3.700
'0:03.223',4.800
'0:03.224',6.400
'0:03.225',7.900
'0:03.226',9.000
'0:03.227',9.500
'0:03.228',9.300
'0:03.229',8.800
'0:03.230',8.100
'0:03.231',7.600
'0:03.232',7.100
'0:03.233',6.600
'0:03.234',6.000
'0:03.235',5.400
'0:03.236',4.800
'0:03.237',4.300
'0:03.238',3.800
'0:03.239',3.500
'0:03.240',3.200
'0:03.241',3.100
'0:03.242',3.100
'0:03.243',3.200
'0:03.244',3.400
'0:03.245',3.300
'0:03.246',3.000
'0:03.247',2.400
'0:03.248',1.800
'0:03.249',1.300
'0:03.250',1.100
'0:03.251',0.900
'0:03.252',0.800
'0:03.253',0.700
'0:03.254',0.600
'0:03.255',0.700
'0:03.256',1.200
'0:03.257',2.100
'0:03.258',3.100
'0:03.259',3.900
'0:03.260',4.300
'0:03.261',4.200
'0:03.262',4.000
'0:03.263',3.700
'0:03.264',3.700
'0:03.265',3.900
'0:03.266',4.200
'0:03.267',4.200
'0:03.268',4.000
'0:03.269',3.500
'0:03.270',3.000
'0:03.271',2.700
'0:03.272',2.500
'0:03.273',2.500
'0:03.274',2.500
'0:03.275',2.300
'0:03.276',2.000
'0:03.277',1.600
'0:03.278',1.600
'0:03.279',1.800
'0:03.280',2.400
'0:03.281',3.000
'0:03.282',3.500
'0:03.283',3.800
'0:03.284',4.100
'0:03.285',4.500
'0:03.286',5.000
'0:03.287',5.700
'0:03.288',6.300
'0:03.289',6.700
'0:03.290',6.700
'0:03.291',6.500
'0:03.292',6.200
'0:03.293',5.800
'0:03.294',5.400
'0:03.295',5.000
'0:03.296',4.700
'0:03.297',4.400
'0:03.298',4.200
'0:03.299',4.200
'0:03.300',4.500
'0:03.301',4.800
'0:03.302',5.200
'0:03.303',5.600
'0:03.304',5.800
'0:03.305',6.000
'0:03.306',6.000
'0:03.307',5.900
'0:03.308',5.900
'0:03.309',6.000
'0:03.310',6.400
'0:03.311',7.000
'0:03.312',7.500
'0:03.313',7.800
'0:03.314',7.600
'0:03.315',7.100
'0:03.316',6.600
'0:03.317',6.400
'0:03.318',6.700
'0:03.319',7.500
'0:03.320',8.300
'0:03.321',8.900
'0:03.322',8.900
'0:03.323',8.400
'0:03.324',7.800
'0:03.325',7.400
'0:03.326',7.100
'0:03.327',7.000
'0:03.328',6.600
'0:03.329',6.000
'0:03.330',5.400
'0:03.331',5.100
'0:03.332',5.300
'0:03.333',6.300
'0:03.334',7.600
'0:03.335',9.100
'0:03.336',10.400
'0:03.337',11.500
'0:03.338',12.300
'0:03.339',12.700
'0:03.340',12.600
'0:03.341',11.700
'0:03.342',10.000
'0:03.343',7.800
'0:03.344',5.700
'0:03.345',4.500
'0:03.346',4.200
'0:03.347',4.600
'0:03.348',5.100
'0:03.349',5.200
'0:03.350',4.700
'0:03.351',3.800
'0:03.352',3.100
'0:03.353',2.900
'0:03.354',3.100
'0:03.355',3.600
'0:03.356',3.900
'0:03.357',3.900
'0:03.358',3.700
'0:03.359',3.300
'0:03.360',2.800
'0:03.361',2.400
'0:03.362',2.000
'0:03.363',1.800
'0:03.364',1.900
'0:03.365',2.400
'0:03.366',3.100
'0:03.367',3.600
'0:03.368',3.900
'0:03.369',3.900
'0:03.370',3.600
'0:03.371',3.500
'0:03.372',3.500
'0:03.373',3.700
'0:03.374',3.900
'0:03.375',4.000
'0:03.376',4.100
'0:03.377',4.300
'0:03.378',4.600
'0:03.379',5.000
'0:03.380',5.200
'0:03.381',5.200
'0:03.382',4.800
'0:03.383',4.400
'0:03.384',4.100
'0:03.385',4.200
'0:03.386',4.700
'0:03.387',5.200
'0:03.388',5.500
'0:03.389',5.400
'0:03.390',5.000
'0:03.391',4.300
'0:03.392',3.600
'0:03.393',2.900
'0:03.394',2.200
'0:03.395',1.600
'0:03.396',0.900
'0:03.397',0.400
'0:03.398',0.100
'0:03.399',0.100
'0:03.400',0.300
'0:03.401',0.800
'0:03.402',1.100
'0:03.403',1.200
'0:03.404',1.100
'0:03.405',1.100
'0:03.406',1.200
'0:03.407',1.700
'0:03.408',2.400
'0:03.409',3.200
'0:03.410',3.800
'0:03.411',4.300
'0:03.412',4.600
'0:03.413',4.900
'0:03.414',5.100
'0:03.415',5.300
'0:03.416',5.400
'0:03.417',5.300
'0:03.418',5.100
'0:03.419',4.900
'0:03.420',4.700
'0:03.421',4.700
'0:03.422',4.700
'0:03.423',4.800
'0:03.424',4.800
'0:03.425',4.700
'0:03.426',4.200
'0:03.427',3.500
'0:03.428',2.500
'0:03.429',1.500
'0:03.430',0.500
'0:03.431',-0.100
'0:03.432',-0.300
'0:03.433',-0.200
'0:03.434',0.200
'0:03.435',0.500
'0:03.436',1.000
'0:03.437',1.600
'0:03.438',2.500
'0:03.439',3.500
'0:03.440',4.500
'0:03.441',5.300
'0:03.442',5.900
'0:03.443',6.800
'0:03.444',8.700
'0:03.445',11.800
'0:03.446',15.800
'0:03.447',19.700
'0:03.448',22.300
'0:03.449',22.700
'0:03.450',21.200
'0:03.451',18.500
'0:03.452',15.800
'0:03.453',13.700
'0:03.454',12.000
'0:03.455',10.300
'0:03.456',8.000
'0:03.457',4.900
'0:03.458',1.700
'0:03.459',-0.700
'0:03.460',-1.700
'0:03.461',-1.400
'0:03.462',-0.300
'0:03.463',0.800
'0:03.464',1.500
'0:03.465',1.700
'0:03.466',1.800
'0:03.467',2.100
'0:03.468',2.600
'0:03.469',3.100
'0:03.470',3.400
'0:03.471',3.300
'0:03.472',3.000
'0:03.473',2.800
'0:03.474',3.100
'0:03.475',3.800
'0:03.476',4.700
'0:03.477',5.400
'0:03.478',5.800
'0:03.479',5.700
'0:03.480',5.300
'0:03.481',4.800
'0:03.482',4.500
'0:03.483',4.200
'0:03.484',4.100
'0:03.485',4.000
'0:03.486',4.000
'0:03.487',4.000
'0:03.488',3.900
'0:03.489',3.800
'0:03.490',3.500
'0:03.491',3.200
'0:03.492',3.100
'0:03.493',3.100
'0:03.494',3.400
'0:03.495',3.800
'0:03.496',4.300
'0:03.497',4.800
'0:03.498',5.300
'0:03.499',5.800
'0:03.500',6.500
'0:03.501',7.200
'0:03.502',7.600
'0:03.503',7.400
'0:03.504',6.600
'0:03.505',5.400
'0:03.506',4.100
'0:03.507',3.400
'0:03.508',3.300
'0:03.509',3.900
'0:03.510',4.600
'0:03.511',5.100
'0:03.512',5.000
'0:03.513',4.400
'0:03.514',3.700
'0:03.515',3.300
'0:03.516',3.400
'0:03.517',4.100
'0:03.518',5.000
'0:03.519',5.700
'0:03.520',6.100
'0:03.521',6.100
'0:03.522',5.900
'0:03.523',5.900
'0:03.524',6.100
'0:03.525',6.400
'0:03.526',6.600
'0:03.527',6.500
'0:03.528',6.100
'0:03.529',5.700
'0:03.530',5.400
'0:03.531',5.400
'0:03.532',5.600
'0:03.533',5.700
'0:03.534',5.500
'0:03.535',5.200
'0:03.536',4.800
'0:03.537',4.800
'0:03.538',5.500
'0:03.539',6.700
'0:03.540',8.100
'0:03.541',9.400
'0:03.542',10.100
'0:03.543',10.200
'0:03.544',10.000
'0:03.545',10.000
'0:03.546',10.700
'0:03.547',12.400
'0:03.548',15.100
'0:03.549',18.300
'0:03.550',21.300
'0:03.551',23.500
'0:03.552',24.500
'0:03.553',24.500
'0:03.554',23.800
'0:03.555',22.900
'0:03.556',22.300
'0:03.557',21.900
'0:03.558',21.400
'0:03.559',20.400
'0:03.560',18.600
'0:03.561',15.800
'0:03.562',12.200
'0:03.563',8.100
'0:03.564',3.800
'0:03.565',-0.700
'0:03.566',-5.100
'0:03.567',-9.600
'0:03.568',-14.100
'0:03.569',-18.600
'0:03.570',-22.900
'0:03.571',-27.000
'0:03.572',-30.800
'0:03.573',-34.401
'0:03.574',-38.101
'0:03.575',-41.701
'0:03.576',-45.301
'0:03.577',-48.601
'0:03.578',-51.501
'0:03.579',-53.801
'0:03.580',-55.401
'0:03.581',-56.501
'0:03.582',-56.801
'0:03.583',-56.301
'0:03.584',-55.001
'0:03.585',-52.701
'0:03.586',-49.801
'0:03.587',-46.301
'0:03.588',-42.501
'0:03.589',-38.301
'0:03.590',-33.801
'0:03.591',-28.700
'0:03.592',-23.300
'0:03.593',-18.200
'0:03.594',-14.000
'0:03.595',-11.300
'0:03.596',-10.000
'0:03.597',-9.600
'0:03.598',-9.300
'0:03.599',-8.400
'0:03.600',-6.900
'0:03.601',-5.100
'0:03.602',-3.500
'0:03.603',-2.600
'0:03.604',-2.500
'0:03.605',-2.700
'0:03.606',-2.800
'0:03.607',-2.700
'0:03.608',-2.200
'0:03.609',-1.800
'0:03.610',-1.600
'0:03.611',-1.700
'0:03.612',-1.800
'0:03.613',-1.800
'0:03.614',-1.400
'0:03.615',-0.700
'0:03.616',0.200
'0:03.617',1.100
'0:03.618',1.800
'0:03.619',2.200
'0:03.620',2.200
'0:03.621',2.100
'0:03.622',2.000
'0:03.623',2.100
'0:03.624',2.500
'0:03.625',3.100
'0:03.626',3.700
'0:03.627',4.300
'0:03.628',4.600
'0:03.629',4.600
'0:03.630',4.700
'0:03.631',4.900
'0:03.632',5.400
'0:03.633',5.900
'0:03.634',6.300
'0:03.635',6.100
'0:03.636',5.600
'0:03.637',4.900
'0:03.638',4.400
'0:03.639',4.400
'0:03.640',5.000
'0:03.641',5.900
'0:03.642',6.700
'0:03.643',7.300
'0:03.644',7.300
'0:03.645',6.900
'0:03.646',6.300
'0:03.647',6.000
'0:03.648',5.900
'0:03.649',6.200
'0:03.650',6.600
'0:03.651',6.700
'0:03.652',6.500
'0:03.653',6.000
'0:03.654',5.300
'0:03.655',4.700
'0:03.656',4.400
'0:03.657',4.300
'0:03.658',4.400
'0:03.659',4.700
'0:03.660',5.100
'0:03.661',5.600
'0:03.662',5.800
'0:03.663',5.600
'0:03.664',4.900
'0:03.665',3.800
'0:03.666',2.900
'0:03.667',2.500
'0:03.668',3.000
'0:03.669',4.000
'0:03.670',5.200
'0:03.671',5.900
'0:03.672',5.800
'0:03.673',5.200
'0:03.674',4.500
'0:03.675',4.200
'0:03.676',4.300
'0:03.677',4.900
'0:03.678',5.500
'0:03.679',5.700
'0:03.680',5.600
'0:03.681',5.300
'0:03.682',5.200
'0:03.683',5.400
'0:03.684',6.100
'0:03.685',7.000
'0:03.686',7.600
'0:03.687',7.900
'0:03.688',7.700
'0:03.689',7.500
'0:03.690',7.500
'0:03.691',7.900
'0:03.692',8.700
'0:03.693',9.600
'0:03.694',10.200
'0:03.695',10.500
'0:03.696',10.500
'0:03.697',10.400
'0:03.698',10.500
'0:03.699',10.500
'0:03.700',10.400
'0:03.701',10.100
'0:03.702',9.300
'0:03.703',8.400
'0:03.704',7.500
'0:03.705',6.700
'0:03.706',6.200
'0:03.707',5.900
'0:03.708',5.800
'0:03.709',5.600
'0:03.710',5.400
'0:03.711',5.100
'0:03.712',4.800
'0:03.713',4.400
'0:03.714',4.200
'0:03.715',4.200
'0:03.716',4.500
'0:03.717',4.900
'0:03.718',5.100
'0:03.719',4.900
'0:03.720',4.100
'0:03.721',3.000
'0:03.722',1.900
'0:03.723',1.300
'0:03.724',1.400
'0:03.725',2.100
'0:03.726',2.900
'0:03.727',3.400
'0:03.728',3.200
'0:03.729',2.400
'0:03.730',1.100
'0:03.731',0.000
'0:03.732',-0.600
'0:03.733',-0.700
'0:03.734',-0.300
'0:03.735',0.100
'0:03.736',0.200
'0:03.737',-0.100
'0:03.738',-0.500
'0:03.739',-0.800
'0:03.740',-0.800
'0:03.741',-0.500
'0:03.742',-0.100
'0:03.743',0.300
'0:03.744',0.700
'0:03.745',1.000
'0:03.746',1.000
'0:03.747',0.800
'0:03.748',0.000
'0:03.749',-1.300
'0:03.750',-2.900
'0:03.751',-4.200
'0:03.752',-5.100
'0:03.753',-5.200
'0:03.754',-4.900
'0:03.755',-4.400
'0:03.756',-4.200
'0:03.757',-4.300
'0:03.758',-4.800
'0:03.759',-5.400
'0:03.760',-5.900
'0:03.761',-6.300
'0:03.762',-6.300
'0:03.763',-6.200
'0:03.764',-6.100
'0:03.765',-6.000
'0:03.766',-6.100
'0:03.767',-6.400
'0:03.768',-6.500
'0:03.769',-6.300
'0:03.770',-5.700
'0:03.771',-5.000
'0:03.772',-4.600
'0:03.773',-4.900
'0:03.774',-6.100
'0:03.775',-7.800
'0:03.776',-9.500
'0:03.777',-10.600
'0:03.778',-10.700
'0:03.779',-10.000
'0:03.780',-9.000
'0:03.781',-8.000
'0:03.782',-7.400
'0:03.783',-7.100
'0:03.784',-7.100
'0:03.785',-7.200
'0:03.786',-7.500
'0:03.787',-8.100
'0:03.788',-8.800
'0:03.789',-9.400
'0:03.790',-9.800
'0:03.791',-9.900
'0:03.792',-9.700
'0:03.793',-9.200
'0:03.794',-8.800
'0:03.795',-8.700
'0:03.796',-8.900
'0:03.797',-9.500
'0:03.798',-10.400
'0:03.799',-11.200
'0:03.800',-12.000
'0:03.801',-12.600
'0:03.802',-13.100
'0:03.803',-13.600
'0:03.804',-14.000
'0:03.805',-14.300
'0:03.806',-14.400
'0:03.807',-14.100
'0:03.808',-13.500
'0:03.809',-12.800
'0:03.810',-12.200
'0:03.811',-11.600
'0:03.812',-11.100
'0:03.813',-10.500
'0:03.814',-10.000
'0:03.815',-9.800
'0:03.816',-10.200
'0:03.817',-11.500
'0:03.818',-13.400
'0:03.819',-15.200
'0:03.820',-16.500
'0:03.821',-16.700
'0:03.822',-16.100
'0:03.823',-15.200
'0:03.824',-14.500
'0:03.825',-14.300
'0:03.826',-14.600
'0:03.827',-14.900
'0:03.828',-14.700
'0:03.829',-13.900
'0:03.830',-12.700
'0:03.831',-11.400
'0:03.832',-10.400
'0:03.833',-9.800
'0:03.834',-9.500
'0:03.835',-9.400
'0:03.836',-9.300
'0:03.837',-9.100
'0:03.838',-8.700
'0:03.839',-8.300
'0:03.840',-7.700
'0:03.841',-6.900
'0:03.842',-5.900
'0:03.843',-4.800
'0:03.844',-3.700
'0:03.845',-2.700
'0:03.846',-1.800
'0:03.847',-1.000
'0:03.848',-0.400
'0:03.849',0.100
'0:03.850',0.400
'0:03.851',0.500
'0:03.852',0.700
'0:03.853',0.900
'0:03.854',1.400
'0:03.855',2.100
'0:03.856',2.900
'0:03.857',3.600
'0:03.858',4.200
'0:03.859',4.700
'0:03.860',5.100
'0:03.861',5.500
'0:03.862',5.900
'0:03.863',6.400
'0:03.864',6.600
'0:03.865',6.600
'0:03.866',6.400
'0:03.867',6.100
'0:03.868',6.100
'0:03.869',6.600
'0:03.870',7.500
'0:03.871',8.500
'0:03.872',9.200
'0:03.873',9.300
'0:03.874',8.800
'0:03.875',8.200
'0:03.876',7.800
'0:03.877',7.900
'0:03.878',8.600
'0:03.879',9.700
'0:03.880',10.900
'0:03.881',11.800
'0:03.882',12.300
'0:03.883',12.300
'0:03.884',11.900
'0:03.885',11.300
'0:03.886',10.700
'0:03.887',10.300
'0:03.888',10.400
'0:03.889',11.000
'0:03.890',11.800
'0:03.891',12.600
'0:03.892',12.900
'0:03.893',12.600
'0:03.894',11.700
'0:03.895',10.600
'0:03.896',9.600
'0:03.897',9.000
'0:03.898',8.800
'0:03.899',8.800
'0:03.900',9.000
'0:03.901',9.400
'0:03.902',9.900
'0:03.903',10.500
'0:03.904',11.200
'0:03.905',11.700
'0:03.906',11.900
'0:03.907',11.800
'0:03.908',11.600
'0:03.909',11.600
'0:03.910',12.200
'0:03.911',13.800
'0:03.912',16.500
'0:03.913',19.900
'0:03.914',23.600
'0:03.915',27.000
'0:03.916',29.400
'0:03.917',30.700
'0:03.918',30.800
'0:03.919',30.000
'0:03.920',28.800
'0:03.921',27.400
'0:03.922',25.600
'0:03.923',23.500
'0:03.924',21.100
'0:03.925',18.600
'0:03.926',16.400
'0:03.927',14.700
'0:03.928',13.700
'0:03.929',13.200
'0:03.930',12.800
'0:03.931',12.600
'0:03.932',12.400
'0:03.933',12.400
'0:03.934',12.700
'0:03.935',13.200
'0:03.936',13.600
'0:03.937',13.700
'0:03.938',13.500
'0:03.939',13.200
'0:03.940',13.200
'0:03.941',13.600
'0:03.942',14.300
'0:03.943',14.800
'0:03.944',14.800
'0:03.945',14.200
'0:03.946',13.200
'0:03.947',12.300
'0:03.948',11.900
'0:03.949',12.000
'0:03.950',12.500
'0:03.951',12.800
'0:03.952',12.700
'0:03.953',12.000
'0:03.954',11.200
'0:03.955',10.600
'0:03.956',10.300
'0:03.957',10.400
'0:03.958',10.700
'0:03.959',10.700
'0:03.960',10.300
'0:03.961',9.800
'0:03.962',9.400
'0:03.963',9.400
'0:03.964',9.800
'0:03.965',10.400
'0:03.966',10.900
'0:03.967',11.000
'0:03.968',10.600
'0:03.969',9.800
'0:03.970',9.000
'0:03.971',8.600
'0:03.972',8.700
'0:03.973',9.200
'0:03.974',10.000
'0:03.975',10.600
'0:03.976',10.800
'0:03.977',10.400
'0:03.978',9.700
'0:03.979',9.000
'0:03.980',8.500
'0:03.981',8.600
'0:03.982',9.300
'0:03.983',10.300
'0:03.984',11.200
'0:03.985',11.700
'0:03.986',11.700
'0:03.987',11.300
'0:03.988',11.000
'0:03.989',11.000
'0:03.990',11.600
'0:03.991',12.500
'0:03.992',13.400
'0:03.993',13.800
'0:03.994',13.600
'0:03.995',12.900
'0:03.996',12.000
'0:03.997',11.200
'0:03.998',10.700
'0:03.999',10.500
'0:04.000',10.700
'0:04.001',11.000
'0:04.002',11.500
'0:04.003',12.000
'0:04.004',12.500
'0:04.005',12.700
'0:04.006',12.600
'0:04.007',12.300
'0:04.008',11.800
'0:04.009',11.500
'0:04.010',11.400
'0:04.011',11.400
'0:04.012',11.500
'0:04.013',11.500
'0:04.014',11.600
'0:04.015',11.800
'0:04.016',12.300
'0:04.017',12.900
'0:04.018',13.500
'0:04.019',13.700
'0:04.020',13.500
'0:04.021',13.000
'0:04.022',12.600
'0:04.023',12.500
'0:04.024',12.800
'0:04.025',13.200
'0:04.026',13.200
'0:04.027',12.800
'0:04.028',12.100
'0:04.029',11.400
'0:04.030',11.400
'0:04.031',11.900
'0:04.032',12.800
'0:04.033',13.600
'0:04.034',13.800
'0:04.035',13.500
'0:04.036',12.800
'0:04.037',12.200
'0:04.038',11.800
'0:04.039',11.700
'0:04.040',11.700
'0:04.041',11.600
'0:04.042',11.600
'0:04.043',11.800
'0:04.044',12.100
'0:04.045',12.600
'0:04.046',13.100
'0:04.047',13.400
'0:04.048',13.600
'0:04.049',13.700
'0:04.050',13.800
'0:04.051',13.900
'0:04.052',14.000
'0:04.053',14.000
'0:04.054',13.700
'0:04.055',13.400
'0:04.056',13.200
'0:04.057',13.200
'0:04.058',13.200
'0:04.059',13.400
'0:04.060',13.600
'0:04.061',14.000
'0:04.062',14.600
'0:04.063',15.300
'0:04.064',16.000
'0:04.065',16.600
'0:04.066',16.800
'0:04.067',17.000
'0:04.068',17.200
'0:04.069',17.400
'0:04.070',17.600
'0:04.071',17.300
'0:04.072',16.400
'0:04.073',15.100
'0:04.074',13.600
'0:04.075',12.400
'0:04.076',11.800
'0:04.077',11.700
'0:04.078',11.600
'0:04.079',11.100
'0:04.080',10.100
'0:04.081',8.800
'0:04.082',7.600
'0:04.083',6.800
'0:04.084',6.800
'0:04.085',7.500
'0:04.086',8.400
'0:04.087',9.200
'0:04.088',9.700
'0:04.089',9.700
'0:04.090',9.600
'0:04.091',9.600
'0:04.092',9.900
'0:04.093',10.400
'0:04.094',10.900
'0:04.095',11.100
'0:04.096',10.900
'0:04.097',10.400
'0:04.098',10.100
'0:04.099',10.200
'0:04.100',10.700
'0:04.101',11.600
'0:04.102',12.300
'0:04.103',12.600
'0:04.104',12.400
'0:04.105',12.200
'0:04.106',12.100
'0:04.107',12.500
'0:04.108',13.200
'0:04.109',14.000
'0:04.110',14.500
'0:04.111',14.700
'0:04.112',14.700
'0:04.113',14.700
'0:04.114',14.700
'0:04.115',14.700
'0:04.116',14.500
'0:04.117',14.000
'0:04.118',13.300
'0:04.119',12.800
'0:04.120',12.600
'0:04.121',12.800
'0:04.122',13.100
'0:04.123',13.300
'0:04.124',13.000
'0:04.125',12.500
'0:04.126',11.800
'0:04.127',11.300
'0:04.128',10.900
'0:04.129',10.700
'0:04.130',10.500
'0:04.131',10.200
'0:04.132',9.700
'0:04.133',9.200
'0:04.134',8.600
'0:04.135',7.900
'0:04.136',7.400
'0:04.137',7.100
'0:04.138',7.100
'0:04.139',7.300
'0:04.140',7.600
'0:04.141',7.800
'0:04.142',7.800
'0:04.143',7.600
'0:04.144',7.400
'0:04.145',7.200
'0:04.146',7.000
'0:04.147',6.800
'0:04.148',6.600
'0:04.149',6.400
'0:04.150',6.600
'0:04.151',7.300
'0:04.152',8.200
'0:04.153',8.900
'0:04.154',9.200
'0:04.155',8.800
'0:04.156',8.000
'0:04.157',7.400
'0:04.158',7.500
'0:04.159',8.300
'0:04.160',9.700
'0:04.161',11.000
'0:04.162',11.700
'0:04.163',11.500
'0:04.164',10.600
'0:04.165',9.300
'0:04.166',8.000
'0:04.167',7.100
'0:04.168',6.500
'0:04.169',6.300
'0:04.170',6.400
'0:04.171',6.500
'0:04.172',6.700
'0:04.173',7.000
'0:04.174',7.300
'0:04.175',7.700
'0:04.176',8.300
'0:04.177',9.000
'0:04.178',9.800
'0:04.179',10.600
'0:04.180',11.300
'0:04.181',11.900
'0:04.182',12.400
'0:04.183',12.900
'0:04.184',13.400
'0:04.185',14.100
'0:04.186',14.900
'0:04.187',15.700
'0:04.188',16.500
'0:04.189',17.300
'0:04.190',17.600
'0:04.191',17.600
'0:04.192',17.000
'0:04.193',16.000
'0:04.194',15.000
'0:04.195',14.100
'0:04.196',13.500
'0:04.197',13.300
'0:04.198',13.200
'0:04.199',13.100
'0:04.200',12.800
'0:04.201',12.500
'0:04.202',12.200
'0:04.203',12.200
'0:04.204',12.400
'0:04.205',12.800
'0:04.206',13.200
'0:04.207',13.500
'0:04.208',13.500
'0:04.209',13.000
'0:04.210',12.000
'0:04.211',10.800
'0:04.212',9.400
'0:04.213',8.500
'0:04.214',8.200
'0:04.215',8.700
'0:04.216',9.600
'0:04.217',10.700
'0:04.218',11.400
'0:04.219',11.600
'0:04.220',11.100
'0:04.221',10.400
'0:04.222',9.700
'0:04.223',9.200
'0:04.224',9.200
'0:04.225',9.600
'0:04.226',10.200
'0:04.227',10.800
'0:04.228',11.100
'0:04.229',11.200
'0:04.230',11.100
'0:04.231',10.800
'0:04.232',10.600
'0:04.233',10.600
'0:04.234',10.900
'0:04.235',11.400
'0:04.236',12.100
'0:04.237',12.800
'0:04.238',13.400
'0:04.239',13.600
'0:04.240',13.500
'0:04.241',13.000
'0:04.242',12.300
'0:04.243',11.700
'0:04.244',11.500
'0:04.245',11.800
'0:04.246',12.700
'0:04.247',14.100
'0:04.248',15.700
'0:04.249',17.300
'0:04.250',18.700
'0:04.251',19.800
'0:04.252',20.800
'0:04.253',21.700
'0:04.254',22.500
'0:04.255',23.100
'0:04.256',23.400
'0:04.257',23.100
'0:04.258',22.200
'0:04.259',20.600
'0:04.260',18.300
'0:04.261',15.400
'0:04.262',12.000
'0:04.263',8.100
'0:04.264',3.800
'0:04.265',-0.600
'0:04.266',-5.000
'0:04.267',-9.400
'0:04.268',-13.700
'0:04.269',-18.000
'0:04.270',-22.400
'0:04.271',-27.000
'0:04.272',-31.700
'0:04.273',-36.201
'0:04.274',-40.301
'0:04.275',-43.901
'0:04.276',-47.001
'0:04.277',-49.601
'0:04.278',-51.601
'0:04.279',-53.001
'0:04.280',-53.601
'0:04.281',-53.201
'0:04.282',-52.001
'0:04.283',-50.001
'0:04.284',-47.601
'0:04.285',-44.801
'0:04.286',-41.501
'0:04.287',-37.801
'0:04.288',-33.401
'0:04.289',-28.700
'0:04.290',-23.800
'0:04.291',-19.100
'0:04.292',-14.900
'0:04.293',-11.300
'0:04.294',-8.300
'0:04.295',-5.800
'0:04.296',-3.800
'0:04.297',-2.300
'0:04.298',-1.000
'0:04.299',0.100
'0:04.300',1.300
'0:04.301',2.800
'0:04.302',4.400
'0:04.303',5.900
'0:04.304',7.000
'0:04.305',7.700
'0:04.306',7.800
'0:04.307',7.800
'0:04.308',7.700
'0:04.309',7.600
'0:04.310',7.700
'0:04.311',8.000
'0:04.312',8.400
'0:04.313',8.800
'0:04.314',9.000
'0:04.315',9.000
'0:04.316',8.600
'0:04.317',8.200
'0:04.318',7.900
'0:04.319',8.000
'0:04.320',8.700
'0:04.321',9.800
'0:04.322',11.000
'0:04.323',11.900
'0:04.324',12.700
'0:04.325',13.200
'0:04.326',13.800
'0:04.327',14.400
'0:04.328',14.800
'0:04.329',14.800
'0:04.330',14.000
'0:04.331',12.500
'0:04.332',10.600
'0:04.333',8.800
'0:04.334',7.600
'0:04.335',7.000
'0:04.336',7.000
'0:04.337',7.000
'0:04.338',6.600
'0:04.339',5.800
'0:04.340',4.800
'0:04.341',3.900
'0:04.342',3.700
'0:04.343',4.100
'0:04.344',4.800
'0:04.345',5.500
'0:04.346',5.900
'0:04.347',5.700
'0:04.348',5.300
'0:04.349',4.800
'0:04.350',4.600
'0:04.351',4.500
'0:04.352',4.300
'0:04.353',4.100
'0:04.354',3.800
'0:04.355',3.900
'0:04.356',4.400
'0:04.357',5.300
'0:04.358',6.300
'0:04.359',7.000
'0:04.360',7.200
'0:04.361',6.700
'0:04.362',6.000
'0:04.363',5.400
'0:04.364',5.000
'0:04.365',4.900
'0:04.366',5.000
'0:04.367',5.000
'0:04.368',5.000
'0:04.369',5.000
'0:04.370',5.000
'0:04.371',4.900
'0:04.372',4.900
'0:04.373',4.900
'0:04.374',5.000
'0:04.375',5.400
'0:04.376',6.000
'0:04.377',6.900
'0:04.378',7.800
'0:04.379',8.800
'0:04.380',10.000
'0:04.381',11.600
'0:04.382',13.700
'0:04.383',16.400
'0:04.384',19.600
'0:04.385',22.600
'0:04.386',24.900
'0:04.387',25.900
'0:04.388',25.500
'0:04.389',23.900
'0:04.390',21.600
'0:04.391',19.100
'0:04.392',16.900
'0:04.393',14.900
'0:04.394',13.100
'0:04.395',11.100
'0:04.396',8.800
'0:04.397',6.400
'0:04.398',4.100
'0:04.399',2.400
'0:04.400',1.500
'0:04.401',1.400
'0:04.402',1.800
'0:04.403',2.300
'0:04.404',2.800
'0:04.405',3.100
'0:04.406',3.300
'0:04.407',3.500
'0:04.408',4.000
'0:04.409',4.700
'0:04.410',5.400
'0:04.411',5.700
'0:04.412',5.500
'0:04.413',4.600
'0:04.414',3.300
'0:04.415',2.200
'0:04.416',1.600
'0:04.417',2.100
'0:04.418',3.400
'0:04.419',5.100
'0:04.420',6.400
'0:04.421',6.800
'0:04.422',6.400
'0:04.423',5.400
'0:04.424',4.500
'0:04.425',3.900
'0:04.426',3.700
'0:04.427',3.500
'0:04.428',3.100
'0:04.429',2.400
'0:04.430',1.500
'0:04.431',0.500
'0:04.432',-0.200
'0:04.433',-0.600
'0:04.434',-0.800
'0:04.435',-0.800
'0:04.436',-0.600
'0:04.437',-0.100
'0:04.438',0.800
'0:04.439',1.700
'0:04.440',2.700
'0:04.441',3.500
'0:04.442',4.000
'0:04.443',4.300
'0:04.444',4.400
'0:04.445',4.400
'0:04.446',4.300
'0:04.447',4.100
'0:04.448',3.800
'0:04.449',3.300
'0:04.450',2.800
'0:04.451',2.000
'0:04.452',0.900
'0:04.453',-0.400
'0:04.454',-1.700
'0:04.455',-2.700
'0:04.456',-3.400
'0:04.457',-3.400
'0:04.458',-3.200
'0:04.459',-3.000
'0:04.460',-3.000
'0:04.461',-3.500
'0:04.462',-4.400
'0:04.463',-5.300
'0:04.464',-6.000
'0:04.465',-6.300
'0:04.466',-6.200
'0:04.467',-5.700
'0:04.468',-5.200
'0:04.469',-5.000
'0:04.470',-5.200
'0:04.471',-5.800
'0:04.472',-6.800
'0:04.473',-7.700
'0:04.474',-8.200
'0:04.475',-8.200
'0:04.476',-7.600
'0:04.477',-6.800
'0:04.478',-6.100
'0:04.479',-5.600
'0:04.480',-5.500
'0:04.481',-5.600
'0:04.482',-5.800
'0:04.483',-6.000
'0:04.484',-6.100
'0:04.485',-6.200
'0:04.486',-6.300
'0:04.487',-6.700
'0:04.488',-7.200
'0:04.489',-7.700
'0:04.490',-8.200
'0:04.491',-8.300
'0:04.492',-8.200
'0:04.493',-7.900
'0:04.494',-7.600
'0:04.495',-7.400
'0:04.496',-7.500
'0:04.497',-7.900
'0:04.498',-8.500
'0:04.499',-9.300
'0:04.500',-10.300
'0:04.501',-11.400
'0:04.502',-12.400
'0:04.503',-13.100
'0:04.504',-13.400
'0:04.505',-13.400
'0:04.506',-13.100
'0:04.507',-12.900
'0:04.508',-13.100
'0:04.509',-13.800
'0:04.510',-14.600
'0:04.511',-15.200
'0:04.512',-15.400
'0:04.513',-15.000
'0:04.514',-14.500
'0:04.515',-14.000
'0:04.516',-14.000
'0:04.517',-14.300
'0:04.518',-14.600
'0:04.519',-14.500
'0:04.520',-13.800
'0:04.521',-12.600
'0:04.522',-11.200
'0:04.523',-10.200
'0:04.524',-9.700
'0:04.525',-9.800
'0:04.526',-10.200
'0:04.527',-10.700
'0:04.528',-11.000
'0:04.529',-11.000
'0:04.530',-10.700
'0:04.531',-10.100
'0:04.532',-9.500
'0:04.533',-9.000
'0:04.534',-8.700
'0:04.535',-8.500
'0:04.536',-8.200
'0:04.537',-7.500
'0:04.538',-6.400
'0:04.539',-5.000
'0:04.540',-3.400
'0:04.541',-2.200
'0:04.542',-1.400
'0:04.543',-1.100
'0:04.544',-0.800
'0:04.545',-0.300
'0:04.546',0.500
'0:04.547',1.200
'0:04.548',1.300
'0:04.549',0.600
'0:04.550',-0.600
'0:04.551',-1.700
'0:04.552',-2.000
'0:04.553',-1.200
'0:04.554',0.300
'0:04.555',1.600
'0:04.556',2.000
'0:04.557',1.600
'0:04.558',0.700
'0:04.559',0.200
'0:04.560',0.600
'0:04.561',1.900
'0:04.562',3.400
'0:04.563',4.500
'0:04.564',4.900
'0:04.565',4.800
'0:04.566',4.800
'0:04.567',5.200
'0:04.568',6.400
'0:04.569',8.000
'0:04.570',9.500
'0:04.571',10.500
'0:04.572',10.900
'0:04.573',10.900
'0:04.574',10.700
'0:04.575',10.400
'0:04.576',10.000
'0:04.577',9.400
'0:04.578',8.400
'0:04.579',7.200
'0:04.580',6.000
'0:04.581',5.200
'0:04.582',5.100
'0:04.583',5.500
'0:04.584',6.100
'0:04.585',6.600
'0:04.586',6.800
'0:04.587',6.700
'0:04.588',6.500
'0:04.589',6.500
'0:04.590',6.600
'0:04.591',6.800
'0:04.592',6.800
'0:04.593',6.600
'0:04.594',6.200
'0:04.595',5.700
'0:04.596',5.400
'0:04.597',5.200
'0:04.598',5.200
'0:04.599',5.100
'0:04.600',5.100
'0:04.601',5.100
'0:04.602',5.100
'0:04.603',5.200
'0:04.604',5.200
'0:04.605',5.100
'0:04.606',4.700
'0:04.607',4.200
'0:04.608',3.800
'0:04.609',3.500
'0:04.610',3.400
'0:04.611',3.500
'0:04.612',3.800
'0:04.613',4.200
'0:04.614',4.800
'0:04.615',5.600
'0:04.616',6.400
'0:04.617',7.000
'0:04.618',7.300
'0:04.619',7.500
'0:04.620',7.500
'0:04.621',7.500
'0:04.622',7.700
'0:04.623',7.900
'0:04.624',8.000
'0:04.625',7.800
'0:04.626',7.300
'0:04.627',6.700
'0:04.628',6.200
'0:04.629',6.100
'0:04.630',6.500
'0:04.631',7.200
'0:04.632',7.800
'0:04.633',7.900
'0:04.634',7.400
'0:04.635',6.600
'0:04.636',5.600
'0:04.637',5.000
'0:04.638',4.900
'0:04.639',5.300
'0:04.640',6.200
'0:04.641',7.100
'0:04.642',7.900
'0:04.643',8.200
'0:04.644',8.100
'0:04.645',7.700
'0:04.646',7.200
'0:04.647',6.900
'0:04.648',6.900
'0:04.649',7.200
'0:04.650',7.600
'0:04.651',8.000
'0:04.652',8.100
'0:04.653',8.000
'0:04.654',7.700
'0:04.655',7.400
'0:04.656',7.300
'0:04.657',7.500
'0:04.658',7.800
'0:04.659',8.200
'0:04.660',8.500
'0:04.661',8.700
'0:04.662',8.900
'0:04.663',9.100
'0:04.664',9.400
'0:04.665',9.800
'0:04.666',10.300
'0:04.667',10.500
'0:04.668',10.300
'0:04.669',9.700
'0:04.670',9.100
'0:04.671',8.600
'0:04.672',8.500
'0:04.673',8.700
'0:04.674',9.000
'0:04.675',9.300
'0:04.676',9.400
'0:04.677',9.200
'0:04.678',9.000
'0:04.679',8.900
'0:04.680',8.800
'0:04.681',8.700
'0:04.682',8.500
'0:04.683',8.200
'0:04.684',7.900
'0:04.685',7.500
'0:04.686',7.300
'0:04.687',7.200
'0:04.688',7.400
'0:04.689',7.900
'0:04.690',8.800
'0:04.691',10.000
'0:04.692',11.100
'0:04.693',12.000
'0:04.694',12.400
'0:04.695',12.200
'0:04.696',11.800
'0:04.697',11.200
'0:04.698',10.700
'0:04.699',10.000
'0:04.700',9.200
'0:04.701',8.200
'0:04.702',7.200
'0:04.703',6.600
'0:04.704',6.400
'0:04.705',6.700
'0:04.706',7.300
'0:04.707',7.600
'0:04.708',7.400
'0:04.709',6.800
'0:04.710',6.000
'0:04.711',5.400
'0:04.712',5.300
'0:04.713',5.600
'0:04.714',6.000
'0:04.715',6.400
'0:04.716',6.400
'0:04.717',6.000
'0:04.718',5.400
'0:04.719',5.000
'0:04.720',4.800
'0:04.721',5.100
'0:04.722',5.700
'0:04.723',6.400
'0:04.724',7.000
'0:04.725',7.300
'0:04.726',7.100
'0:04.727',6.700
'0:04.728',6.200
'0:04.729',5.600
'0:04.730',5.100
'0:04.731',4.900
'0:04.732',4.700
'0:04.733',4.600
'0:04.734',4.600
'0:04.735',4.600
'0:04.736',4.600
'0:04.737',4.600
'0:04.738',4.800
'0:04.739',4.900
'0:04.740',4.900
'0:04.741',4.700
'0:04.742',4.300
'0:04.743',3.800
'0:04.744',3.400
'0:04.745',3.300
'0:04.746',3.500
'0:04.747',4.000
'0:04.748',4.700
'0:04.749',5.200
'0:04.750',5.200
'0:04.751',4.800
'0:04.752',4.200
'0:04.753',3.700
'0:04.754',3.700
'0:04.755',4.300
'0:04.756',5.300
'0:04.757',6.000
'0:04.758',6.100
'0:04.759',5.500
'0:04.760',4.400
'0:04.761',3.600
'0:04.762',3.500
'0:04.763',4.200
'0:04.764',5.200
'0:04.765',6.100
'0:04.766',6.200
'0:04.767',5.800
'0:04.768',5.000
'0:04.769',4.400
'0:04.770',4.100
'0:04.771',4.200
'0:04.772',4.300
'0:04.773',4.400
'0:04.774',4.400
'0:04.775',4.600
'0:04.776',4.900
'0:04.777',5.300
'0:04.778',5.800
'0:04.779',6.100
'0:04.780',6.300
'0:04.781',6.400
'0:04.782',6.500
'0:04.783',6.700
'0:04.784',6.900
'0:04.785',7.000
'0:04.786',6.900
'0:04.787',6.800
'0:04.788',6.700
'0:04.789',6.600
'0:04.790',6.600
'0:04.791',6.600
'0:04.792',6.500
'0:04.793',6.700
'0:04.794',7.200
'0:04.795',7.900
'0:04.796',8.700
'0:04.797',9.200
'0:04.798',9.100
'0:04.799',8.500
'0:04.800',7.500
'0:04.801',6.800
'0:04.802',6.500
'0:04.803',6.800
'0:04.804',7.500
'0:04.805',8.200
'0:04.806',8.500
'0:04.807',8.400
'0:04.808',8.000
'0:04.809',7.300
'0:04.810',6.700
'0:04.811',6.500
'0:04.812',6.800
'0:04.813',7.700
'0:04.814',9.100
'0:04.815',10.700
'0:04.816',12.000
'0:04.817',12.900
'0:04.818',13.200
'0:04.819',13.100
'0:04.820',12.800
'0:04.821',12.500
'0:04.822',12.100
'0:04.823',11.300
'0:04.824',10.200
'0:04.825',8.600
'0:04.826',7.000
'0:04.827',5.500
'0:04.828',4.700
'0:04.829',4.600
'0:04.830',4.800
'0:04.831',4.800
'0:04.832',4.400
'0:04.833',3.300
'0:04.834',1.800
'0:04.835',0.300
'0:04.836',-0.500
'0:04.837',-0.700
'0:04.838',-0.400
'0:04.839',0.000
'0:04.840',0.200
'0:04.841',0.000
'0:04.842',-0.200
'0:04.843',-0.100
'0:04.844',0.700
'0:04.845',2.300
'0:04.846',4.300
'0:04.847',6.400
'0:04.848',8.400
'0:04.849',10.400
'0:04.850',12.700
'0:04.851',15.200
'0:04.852',18.000
'0:04.853',20.600
'0:04.854',22.500
'0:04.855',23.400
'0:04.856',23.100
'0:04.857',22.000
'0:04.858',20.300
'0:04.859',18.400
'0:04.860',16.500
'0:04.861',14.500
'0:04.862',12.300
'0:04.863',9.900
'0:04.864',7.400
'0:04.865',5.000
'0:04.866',3.200
'0:04.867',2.100
'0:04.868',1.800
'0:04.869',2.200
'0:04.870',2.900
'0:04.871',3.800
'0:04.872',4.500
'0:04.873',5.000
'0:04.874',5.300
'0:04.875',5.600
'0:04.876',6.000
'0:04.877',6.300
'0:04.878',6.600
'0:04.879',6.800
'0:04.880',6.900
'0:04.881',6.900
'0:04.882',6.900
'0:04.883',7.000
'0:04.884',7.300
'0:04.885',7.500
'0:04.886',7.800
'0:04.887',8.000
'0:04.888',8.000
'0:04.889',7.900
'0:04.890',7.500
'0:04.891',7.000
'0:04.892',6.400
'0:04.893',5.800
'0:04.894',5.400
'0:04.895',5.400
'0:04.896',5.700
'0:04.897',6.500
'0:04.898',7.400
'0:04.899',8.300
'0:04.900',8.900
'0:04.901',9.200
'0:04.902',9.200
'0:04.903',9.000
'0:04.904',8.900
'0:04.905',8.800
'0:04.906',8.800
'0:04.907',8.700
'0:04.908',8.500
'0:04.909',8.100
'0:04.910',7.700
'0:04.911',7.400
'0:04.912',7.200
'0:04.913',7.400
'0:04.914',7.700
'0:04.915',8.200
'0:04.916',8.700
'0:04.917',9.200
'0:04.918',9.500
'0:04.919',9.700
'0:04.920',9.700
'0:04.921',9.400
'0:04.922',9.000
'0:04.923',8.700
'0:04.924',8.600
'0:04.925',9.000
'0:04.926',9.700
'0:04.927',10.600
'0:04.928',11.400
'0:04.929',12.000
'0:04.930',12.700
'0:04.931',13.500
'0:04.932',14.700
'0:04.933',16.300
'0:04.934',18.000
'0:04.935',19.300
'0:04.936',19.900
'0:04.937',19.800
'0:04.938',19.400
'0:04.939',19.000
'0:04.940',18.900
'0:04.941',19.000
'0:04.942',19.000
'0:04.943',18.400
'0:04.944',17.000
'0:04.945',14.700
'0:04.946',11.800
'0:04.947',8.700
'0:04.948',5.400
'0:04.949',2.100
'0:04.950',-1.300
'0:04.951',-4.900
'0:04.952',-9.000
'0:04.953',-13.500
'0:04.954',-18.400
'0:04.955',-23.600
'0:04.956',-29.000
'0:04.957',-34.201
'0:04.958',-39.001
'0:04.959',-43.001
'0:04.960',-46.201
'0:04.961',-48.601
'0:04.962',-50.301
'0:04.963',-51.601
'0:04.964',-52.601
'0:04.965',-53.201
'0:04.966',-53.101
'0:04.967',-52.201
'0:04.968',-50.301
'0:04.969',-47.501
'0:04.970',-44.201
'0:04.971',-40.601
'0:04.972',-37.001
'0:04.973',-33.201
'0:04.974',-29.100
'0:04.975',-24.600
'0:04.976',-19.800
'0:04.977',-15.300
'0:04.978',-11.500
'0:04.979',-9.000
'0:04.980',-7.700
'0:04.981',-7.000
'0:04.982',-6.400
'0:04.983',-5.300
'0:04.984',-3.500
'0:04.985',-1.400
'0:04.986',0.400
'0:04.987',1.300
'0:04.988',1.400
'0:04.989',1.100
'0:04.990',0.800
'0:04.991',1.100
'0:04.992',1.900
'0:04.993',2.900
'0:04.994',3.500
'0:04.995',3.600
'0:04.996',3.100
'0:04.997',2.500
'0:04.998',2.200
'0:04.999',2.200
'0:05.000',2.600
'0:05.001',3.100
'0:05.002',3.300
'0:05.003',3.200
'0:05.004',3.100
'0:05.005',3.100
'0:05.006',3.500
'0:05.007',4.300
'0:05.008',5.100
'0:05.009',5.600
'0:05.010',5.600
'0:05.011',5.200
'0:05.012',4.700
'0:05.013',4.500
'0:05.014',4.600
'0:05.015',5.100
'0:05.016',5.700
'0:05.017',6.100
'0:05.018',6.200
'0:05.019',6.300
'0:05.020',6.400
'0:05.021',6.600
'0:05.022',6.900
'0:05.023',7.000
'0:05.024',6.900
'0:05.025',6.600
'0:05.026',6.200
'0:05.027',6.100
'0:05.028',6.400
'0:05.029',7.000
'0:05.030',7.700
'0:05.031',8.300
'0:05.032',8.300
'0:05.033',7.800
'0:05.034',7.100
'0:05.035',6.300
'0:05.036',5.700
'0:05.037',5.500
'0:05.038',5.600
'0:05.039',5.800
'0:05.040',6.200
'0:05.041',6.400
'0:05.042',6.400
'0:05.043',6.000
'0:05.044',5.300
'0:05.045',4.500
'0:05.046',3.600
'0:05.047',3.100
'0:05.048',2.800
'0:05.049',2.900
'0:05.050',3.000
'0:05.051',3.200
'0:05.052',3.500
'0:05.053',4.100
'0:05.054',5.000
'0:05.055',6.200
'0:05.056',7.300
'0:05.057',7.900
'0:05.058',7.700
'0:05.059',6.800
'0:05.060',5.400
'0:05.061',4.100
'0:05.062',3.200
'0:05.063',2.700
'0:05.064',2.400
'0:05.065',2.200
'0:05.066',2.000
'0:05.067',1.700
'0:05.068',1.400
'0:05.069',1.100
'0:05.070',1.000
'0:05.071',0.800
'0:05.072',0.400
'0:05.073',-0.100
'0:05.074',-0.900
'0:05.075',-1.800
'0:05.076',-2.800
'0:05.077',-3.700
'0:05.078',-4.500
'0:05.079',-4.800
'0:05.080',-4.600
'0:05.081',-3.900
'0:05.082',-3.100
'0:05.083',-2.400
'0:05.084',-2.100
'0:05.085',-1.900
'0:05.086',-1.700
'0:05.087',-1.300
'0:05.088',-0.700
'0:05.089',-0.100
'0:05.090',0.100
'0:05.091',-0.300
'0:05.092',-1.000
'0:05.093',-1.800
'0:05.094',-2.000
'0:05.095',-1.900
'0:05.096',-1.500
'0:05.097',-1.500
'0:05.098',-1.900
'0:05.099',-2.800
'0:05.100',-3.600
'0:05.101',-4.100
'0:05.102',-4.100
'0:05.103',-3.800
'0:05.104',-3.600
'0:05.105',-3.600
'0:05.106',-3.600
'0:05.107',-3.300
'0:05.108',-2.800
'0:05.109',-2.300
'0:05.110',-2.100
'0:05.111',-2.300
'0:05.112',-3.000
'0:05.113',-3.600
'0:05.114',-3.800
'0:05.115',-3.600
'0:05.116',-3.300
'0:05.117',-3.000
'0:05.118',-2.800
'0:05.119',-2.700
'0:05.120',-2.400
'0:05.121',-1.800
'0:05.122',-1.300
'0:05.123',-1.100
'0:05.124',-1.500
'0:05.125',-2.300
'0:05.126',-3.100
'0:05.127',-3.600
'0:05.128',-3.700
'0:05.129',-3.800
'0:05.130',-4.100
'0:05.131',-4.700
'0:05.132',-5.300
'0:05.133',-5.600
'0:05.134',-5.500
'0:05.135',-5.000
'0:05.136',-4.700
'0:05.137',-4.800
'0:05.138',-5.500
'0:05.139',-6.300
'0:05.140',-6.900
'0:05.141',-6.800
'0:05.142',-6.200
'0:05.143',-5.600
'0:05.144',-5.400
'0:05.145',-5.800
'0:05.146',-6.500
'0:05.147',-7.200
'0:05.148',-7.500
'0:05.149',-7.300
'0:05.150',-7.100
'0:05.151',-7.200
'0:05.152',-7.900
'0:05.153',-8.900
'0:05.154',-10.000
'0:05.155',-10.600
'0:05.156',-10.400
'0:05.157',-9.600
'0:05.158',-8.500
'0:05.159',-7.300
'0:05.160',-6.500
'0:05.161',-5.900
'0:05.162',-5.700
'0:05.163',-5.800
'0:05.164',-6.300
'0:05.165',-7.200
'0:05.166',-8.400
'0:05.167',-9.900
'0:05.168',-11.400
'0:05.169',-12.700
'0:05.170',-13.400
'0:05.171',-13.500
'0:05.172',-13.000
'0:05.173',-12.100
'0:05.174',-11.100
'0:05.175',-10.200
'0:05.176',-9.500
'0:05.177',-9.200
'0:05.178',-9.100
'0:05.179',-9.300
'0:05.180',-9.800
'0:05.181',-10.500
'0:05.182',-11.500
'0:05.183',-12.700
'0:05.184',-14.000
'0:05.185',-15.000
'0:05.186',-15.700
'0:05.187',-16.100
'0:05.188',-16.000
'0:05.189',-15.800
'0:05.190',-15.500
'0:05.191',-15.400
'0:05.192',-15.600
'0:05.193',-16.100
'0:05.194',-17.100
'0:05.195',-18.100
'0:05.196',-19.100
'0:05.197',-19.600
'0:05.198',-19.600
'0:05.199',-19.000
'0:05.200',-18.100
'0:05.201',-17.300
'0:05.202',-16.700
'0:05.203',-16.500
'0:05.204',-16.700
'0:05.205',-17.000
'0:05.206',-17.300
'0:05.207',-17.600
'0:05.208',-17.900
'0:05.209',-18.000
'0:05.210',-18.000
'0:05.211',-17.900
'0:05.212',-17.500
'0:05.213',-16.900
'0:05.214',-16.000
'0:05.215',-14.900
'0:05.216',-13.800
'0:05.217',-12.600
'0:05.218',-11.600
'0:05.219',-10.800
'0:05.220',-10.200
'0:05.221',-9.700
'0:05.222',-9.200
'0:05.223',-8.800
'0:05.224',-8.400
'0:05.225',-7.900
'0:05.226',-7.400
'0:05.227',-6.800
'0:05.228',-6.100
'0:05.229',-5.400
'0:05.230',-4.900
'0:05.231',-4.800
'0:05.232',-4.800
'0:05.233',-5.100
'0:05.234',-5.300
'0:05.235',-5.500
'0:05.236',-5.400
'0:05.237',-5.200
'0:05.238',-4.700
'0:05.239',-4.100
'0:05.240',-3.200
'0:05.241',-2.100
'0:05.242',-0.900
'0:05.243',0.200
'0:05.244',1.000
'0:05.245',1.400
'0:05.246',1.300
'0:05.247',0.900
'0:05.248',0.500
'0:05.249',0.300
'0:05.250',0.600
'0:05.251',1.300
'0:05.252',2.400
'0:05.253',3.700
'0:05.254',5.000
'0:05.255',6.000
'0:05.256',7.000
'0:05.257',8.000
'0:05.258',9.200
'0:05.259',10.300
'0:05.260',11.200
'0:05.261',11.300
'0:05.262',10.600
'0:05.263',9.300
'0:05.264',7.900
'0:05.265',6.700
'0:05.266',6.000
'0:05.267',5.900
'0:05.268',6.200
'0:05.269',6.600
'0:05.270',6.900
'0:05.271',6.800
'0:05.272',6.200
'0:05.273',5.400
'0:05.274',4.600
'0:05.275',4.000
'0:05.276',4.100
'0:05.277',4.800
'0:05.278',5.800
'0:05.279',6.500
'0:05.280',6.500
'0:05.281',5.600
'0:05.282',4.400
'0:05.283',3.300
'0:05.284',2.900
'0:05.285',3.200
'0:05.286',3.800
'0:05.287',4.100
'0:05.288',3.900
'0:05.289',3.400
'0:05.290',2.900
'0:05.291',3.000
'0:05.292',3.700
'0:05.293',4.600
'0:05.294',5.500
'0:05.295',5.900
'0:05.296',5.900
'0:05.297',5.700
'0:05.298',5.500
'0:05.299',5.400
'0:05.300',5.200
'0:05.301',5.000
'0:05.302',4.800
'0:05.303',4.700
'0:05.304',4.600
'0:05.305',4.700
'0:05.306',4.700
'0:05.307',4.600
'0:05.308',4.400
'0:05.309',4.400
'0:05.310',4.500
'0:05.311',5.000
'0:05.312',5.700
'0:05.313',6.300
'0:05.314',6.900
'0:05.315',7.400
'0:05.316',8.000
'0:05.317',8.600
'0:05.318',9.500
'0:05.319',10.700
'0:05.320',12.300
'0:05.321',14.600
'0:05.322',17.300
'0:05.323',20.300
'0:05.324',22.800
'0:05.325',24.200
'0:05.326',24.000
'0:05.327',22.500
'0:05.328',20.100
'0:05.329',17.400
'0:05.330',15.100
'0:05.331',13.300
'0:05.332',11.800
'0:05.333',10.300
'0:05.334',8.600
'0:05.335',6.900
'0:05.336',5.100
'0:05.337',3.500
'0:05.338',2.100
'0:05.339',1.100
'0:05.340',0.500
'0:05.341',0.500
'0:05.342',1.100
'0:05.343',2.500
'0:05.344',4.400
'0:05.345',6.400
'0:05.346',8.100
'0:05.347',9.200
'0:05.348',9.600
'0:05.349',9.600
'0:05.350',9.400
'0:05.351',9.300
'0:05.352',9.300
'0:05.353',9.200
'0:05.354',9.000
'0:05.355',8.700
'0:05.356',8.500
'0:05.357',8.400
'0:05.358',8.500
'0:05.359',8.600
'0:05.360',8.500
'0:05.361',8.200
'0:05.362',7.700
'0:05.363',7.200
'0:05.364',6.800
'0:05.365',6.500
'0:05.366',6.200
'0:05.367',6.000
'0:05.368',5.900
'0:05.369',6.200
'0:05.370',7.100
'0:05.371',8.200
'0:05.372',9.200
'0:05.373',9.800
'0:05.374',9.800
'0:05.375',9.400
'0:05.376',9.000
'0:05.377',8.600
'0:05.378',8.300
'0:05.379',7.700
'0:05.380',6.900
'0:05.381',5.800
'0:05.382',4.800
'0:05.383',4.100
'0:05.384',4.000
'0:05.385',4.200
'0:05.386',4.500
'0:05.387',4.800
'0:05.388',5.000
'0:05.389',5.200
'0:05.390',5.500
'0:05.391',5.600
'0:05.392',5.400
'0:05.393',4.600
'0:05.394',3.700
'0:05.395',2.900
'0:05.396',2.900
'0:05.397',3.800
'0:05.398',5.100
'0:05.399',6.200
'0:05.400',6.500
'0:05.401',6.000
'0:05.402',5.000
'0:05.403',4.300
'0:05.404',4.200
'0:05.405',4.800
'0:05.406',5.600
'0:05.407',6.000
'0:05.408',5.500
'0:05.409',4.300
'0:05.410',3.200
'0:05.411',2.700
'0:05.412',3.000
'0:05.413',3.900
'0:05.414',5.000
'0:05.415',5.700
'0:05.416',6.000
'0:05.417',6.100
'0:05.418',6.200
'0:05.419',6.400
'0:05.420',6.800
'0:05.421',7.100
'0:05.422',7.100
'0:05.423',7.000
'0:05.424',7.000
'0:05.425',7.300
'0:05.426',7.700
'0:05.427',7.800
'0:05.428',7.600
'0:05.429',7.100
'0:05.430',6.600
'0:05.431',6.500
'0:05.432',7.100
'0:05.433',8.000
'0:05.434',8.600
'0:05.435',8.700
'0:05.436',8.000
'0:05.437',6.900
'0:05.438',5.800
'0:05.439',5.100
'0:05.440',4.900
'0:05.441',4.900
'0:05.442',4.800
'0:05.443',4.600
'0:05.444',4.200
'0:05.445',3.900
'0:05.446',3.900
'0:05.447',4.300
'0:05.448',4.900
'0:05.449',5.500
'0:05.450',5.800
'0:05.451',5.800
'0:05.452',5.500
'0:05.453',4.900
'0:05.454',4.200
'0:05.455',3.600
'0:05.456',3.200
'0:05.457',3.200
'0:05.458',3.500
'0:05.459',4.000
'0:05.460',4.600
'0:05.461',5.400
'0:05.462',6.200
'0:05.463',6.900
'0:05.464',7.700
'0:05.465',8.500
'0:05.466',9.300
'0:05.467',10.000
'0:05.468',10.400
'0:05.469',10.600
'0:05.470',10.300
'0:05.471',9.500
'0:05.472',8.300
'0:05.473',6.700
'0:05.474',5.000
'0:05.475',3.300
'0:05.476',2.100
'0:05.477',1.400
'0:05.478',1.600
'0:05.479',2.700
'0:05.480',4.200
'0:05.481',5.900
'0:05.482',7.200
'0:05.483',7.800
'0:05.484',7.600
'0:05.485',7.000
'0:05.486',6.300
'0:05.487',5.600
'0:05.488',5.100
'0:05.489',4.700
'0:05.490',4.100
'0:05.491',3.400
'0:05.492',2.600
'0:05.493',2.000
'0:05.494',1.900
'0:05.495',2.200
'0:05.496',3.000
'0:05.497',4.000
'0:05.498',4.800
'0:05.499',5.300
'0:05.500',5.300
'0:05.501',4.600
'0:05.502',3.500
'0:05.503',2.100
'0:05.504',0.900
'0:05.505',0.100
'0:05.506',0.000
'0:05.507',0.300
'0:05.508',0.900
'0:05.509',1.300
'0:05.510',1.500
'0:05.511',1.400
'0:05.512',0.900
'0:05.513',0.500
'0:05.514',0.000
'0:05.515',-0.200
'0:05.516',-0.400
'0:05.517',-0.500
'0:05.518',-0.600
'0:05.519',-0.800
'0:05.520',-1.200
'0:05.521',-1.700
'0:05.522',-2.100
'0:05.523',-2.200
'0:05.524',-1.900
'0:05.525',-1.200
'0:05.526',-0.300
'0:05.527',0.300
'0:05.528',0.300
'0:05.529',-0.400
'0:05.530',-1.600
'0:05.531',-2.800
'0:05.532',-3.700
'0:05.533',-3.900
'0:05.534',-3.400
'0:05.535',-2.600
'0:05.536',-1.600
'0:05.537',-0.700
'0:05.538',0.200
'0:05.539',1.100
'0:05.540',1.900
'0:05.541',2.400
'0:05.542',2.500
'0:05.543',2.200
'0:05.544',1.600
'0:05.545',1.200
'0:05.546',1.300
'0:05.547',1.800
'0:05.548',2.500
'0:05.549',3.100
'0:05.550',3.200
'0:05.551',2.900
'0:05.552',2.700
'0:05.553',2.700
'0:05.554',3.200
'0:05.555',4.000
'0:05.556',4.700
'0:05.557',5.100
'0:05.558',5.200
'0:05.559',5.200
'0:05.560',5.300
'0:05.561',5.700
'0:05.562',6.200
'0:05.563',6.400
'0:05.564',6.100
'0:05.565',5.600
'0:05.566',4.900
'0:05.567',4.400
'0:05.568',4.400
'0:05.569',4.900
'0:05.570',5.700
'0:05.571',6.600
'0:05.572',7.300
'0:05.573',7.700
'0:05.574',7.800
'0:05.575',7.500
'0:05.576',7.100
'0:05.577',6.700
'0:05.578',6.500
'0:05.579',6.600
'0:05.580',6.900
'0:05.581',7.000
'0:05.582',6.800
'0:05.583',6.000
'0:05.584',4.800
'0:05.585',3.800
'0:05.586',3.200
'0:05.587',3.200
'0:05.588',3.600
'0:05.589',3.900
'0:05.590',3.800
'0:05.591',3.200
'0:05.592',2.400
'0:05.593',2.000
'0:05.594',2.400
'0:05.595',3.500
'0:05.596',4.700
'0:05.597',5.400
'0:05.598',5.200
'0:05.599',4.500
'0:05.600',3.900
'0:05.601',4.000
'0:05.602',4.900
'0:05.603',6.200
'0:05.604',7.200
'0:05.605',7.400
'0:05.606',6.900
'0:05.607',6.300
'0:05.608',6.100
'0:05.609',6.800
'0:05.610',8.100
'0:05.611',9.600
'0:05.612',10.800
'0:05.613',11.900
'0:05.614',13.100
'0:05.615',14.900
'0:05.616',17.000
'0:05.617',19.000
'0:05.618',20.400
'0:05.619',20.700
'0:05.620',20.100
'0:05.621',18.800
'0:05.622',17.300
'0:05.623',15.600
'0:05.624',13.600
'0:05.625',11.200
'0:05.626',8.200
'0:05.627',4.800
'0:05.628',1.100
'0:05.629',-2.700
'0:05.630',-6.800
'0:05.631',-11.200
'0:05.632',-15.900
'0:05.633',-20.700
'0:05.634',-25.400
'0:05.635',-29.600
'0:05.636',-33.401
'0:05.637',-37.001
'0:05.638',-40.501
'0:05.639',-44.101
'0:05.640',-47.601
'0:05.641',-50.701
'0:05.642',-52.901
'0:05.643',-54.101
'0:05.644',-54.301
'0:05.645',-53.701
'0:05.646',-52.601
'0:05.647',-51.101
'0:05.648',-49.201
'0:05.649',-46.701
'0:05.650',-43.401
'0:05.651',-39.201
'0:05.652',-34.301
'0:05.653',-29.100
'0:05.654',-24.100
'0:05.655',-19.900
'0:05.656',-16.400
'0:05.657',-13.600
'0:05.658',-11.000
'0:05.659',-8.500
'0:05.660',-5.900
'0:05.661',-3.500
'0:05.662',-1.400
'0:05.663',0.300
'0:05.664',2.000
'0:05.665',3.600
'0:05.666',5.400
'0:05.667',7.200
'0:05.668',8.600
'0:05.669',9.600
'0:05.670',10.200
'0:05.671',10.600
'0:05.672',11.100
'0:05.673',11.700
'0:05.674',12.100
'0:05.675',12.100
'0:05.676',11.300
'0:05.677',9.900
'0:05.678',8.200
'0:05.679',6.500
'0:05.680',5.000
'0:05.681',3.900
'0:05.682',3.400
'0:05.683',3.200
'0:05.684',3.300
'0:05.685',3.200
'0:05.686',2.600
'0:05.687',1.400
'0:05.688',0.000
'0:05.689',-1.100
'0:05.690',-1.400
'0:05.691',-0.600
'0:05.692',0.600
'0:05.693',1.400
'0:05.694',1.400
'0:05.695',0.300
'0:05.696',-1.000
'0:05.697',-1.900
'0:05.698',-1.900
'0:05.699',-1.100
'0:05.700',-0.100
'0:05.701',0.800
'0:05.702',1.200
'0:05.703',1.400
'0:05.704',1.700
'0:05.705',2.300
'0:05.706',2.900
'0:05.707',3.300
'0:05.708',3.500
'0:05.709',3.500
'0:05.710',3.600
'0:05.711',3.900
'0:05.712',4.200
'0:05.713',4.000
'0:05.714',3.200
'0:05.715',1.900
'0:05.716',0.600
'0:05.717',-0.200
'0:05.718',-0.100
'0:05.719',0.700
'0:05.720',1.900
'0:05.721',3.000
'0:05.722',3.700
'0:05.723',4.100
'0:05.724',4.400
'0:05.725',4.900
'0:05.726',5.500
'0:05.727',6.000
'0:05.728',6.100
'0:05.729',5.700
'0:05.730',5.100
'0:05.731',4.600
'0:05.732',4.500
'0:05.733',4.700
'0:05.734',5.000
'0:05.735',5.200
'0:05.736',5.000
'0:05.737',4.600
'0:05.738',4.300
'0:05.739',4.500
'0:05.740',5.000
'0:05.741',5.700
'0:05.742',6.000
'0:05.743',5.800
'0:05.744',5.000
'0:05.745',4.000
'0:05.746',3.200
'0:05.747',2.900
'0:05.748',3.000
'0:05.749',3.500
'0:05.750',4.000
'0:05.751',4.400
'0:05.752',4.700
'0:05.753',5.000
'0:05.754',5.200
'0:05.755',5.400
'0:05.756',5.500
'0:05.757',5.400
'0:05.758',5.100
'0:05.759',4.600
'0:05.760',4.000
'0:05.761',3.300
'0:05.762',2.700
'0:05.763',2.400
'0:05.764',2.400
'0:05.765',2.900
'0:05.766',3.600
'0:05.767',4.400
'0:05.768',5.000
'0:05.769',5.400
'0:05.770',5.700
'0:05.771',6.000
'0:05.772',6.100
'0:05.773',5.700
'0:05.774',4.700
'0:05.775',3.100
'0:05.776',1.000
'0:05.777',-1.100
'0:05.778',-2.700
'0:05.779',-3.400
'0:05.780',-3.400
'0:05.781',-2.700
'0:05.782',-1.800
'0:05.783',-0.900
'0:05.784',-0.300
'0:05.785',0.200
'0:05.786',0.800
'0:05.787',1.900
'0:05.788',3.600
'0:05.789',6.100
'0:05.790',9.200
'0:05.791',12.200
'0:05.792',14.700
'0:05.793',16.200
'0:05.794',16.600
'0:05.795',15.900
'0:05.796',14.500
'0:05.797',12.500
'0:05.798',10.100
'0:05.799',7.100
'0:05.800',3.800
'0:05.801',0.300
'0:05.802',-3.300
'0:05.803',-6.600
'0:05.804',-9.400
'0:05.805',-11.500
'0:05.806',-12.900
'0:05.807',-13.400
'0:05.808',-13.200
'0:05.809',-12.500
'0:05.810',-11.500
'0:05.811',-10.400
'0:05.812',-9.600
'0:05.813',-9.200
'0:05.814',-9.100
'0:05.815',-9.200
'0:05.816',-9.400
'0:05.817',-9.700
'0:05.818',-9.800
'0:05.819',-9.900
'0:05.820',-9.900
'0:05.821',-9.900
'0:05.822',-9.800
'0:05.823',-9.700
'0:05.824',-9.700
'0:05.825',-9.700
'0:05.826',-9.600
'0:05.827',-9.300
'0:05.828',-8.700
'0:05.829',-8.100
'0:05.830',-7.500
'0:05.831',-7.200
'0:05.832',-7.300
'0:05.833',-7.500
'0:05.834',-7.800
'0:05.835',-8.000
'0:05.836',-8.300
'0:05.837',-8.800
'0:05.838',-9.400
'0:05.839',-10.100
'0:05.840',-10.800
'0:05.841',-11.300
'0:05.842',-11.800
'0:05.843',-12.300
'0:05.844',-12.800
'0:05.845',-13.100
'0:05.846',-13.200
'0:05.847',-13.100
'0:05.848',-13.100
'0:05.849',-13.600
'0:05.850',-14.700
'0:05.851',-16.300
'0:05.852',-17.700
'0:05.853',-18.300
'0:05.854',-18.000
'0:05.855',-17.000
'0:05.856',-16.100
'0:05.857',-15.800
'0:05.858',-16.400
'0:05.859',-17.500
'0:05.860',-18.500
'0:05.861',-18.700
'0:05.862',-18.100
'0:05.863',-17.000
'0:05.864',-15.800
'0:05.865',-15.000
'0:05.866',-14.700
'0:05.867',-14.700
'0:05.868',-14.700
'0:05.869',-14.400
'0:05.870',-14.000
'0:05.871',-13.700
'0:05.872',-13.700
'0:05.873',-14.300
'0:05.874',-15.400
'0:05.875',-16.600
'0:05.876',-17.700
'0:05.877',-18.400
'0:05.878',-18.400
'0:05.879',-18.000
'0:05.880',-17.400
'0:05.881',-17.100
'0:05.882',-17.200
'0:05.883',-17.700
'0:05.884',-18.300
'0:05.885',-18.500
'0:05.886',-18.200
'0:05.887',-17.400
'0:05.888',-16.300
'0:05.889',-15.500
'0:05.890',-15.100
'0:05.891',-15.100
'0:05.892',-15.500
'0:05.893',-15.700
'0:05.894',-15.700
'0:05.895',-15.100
'0:05.896',-14.300
'0:05.897',-13.300
'0:05.898',-12.500
'0:05.899',-11.800
'0:05.900',-11.300
'0:05.901',-10.900
'0:05.902',-10.400
'0:05.903',-9.900
'0:05.904',-9.500
'0:05.905',-9.300
'0:05.906',-9.200
'0:05.907',-9.100
'0:05.908',-8.600
'0:05.909',-7.500
'0:05.910',-6.100
'0:05.911',-4.800
'0:05.912',-3.800
'0:05.913',-3.500
'0:05.914',-3.700
'0:05.915',-3.800
'0:05.916',-3.700
'0:05.917',-3.200
'0:05.918',-2.500
'0:05.919',-1.800
'0:05.920',-1.300
'0:05.921',-1.000
'0:05.922',-0.600
'0:05.923',-0.200
'0:05.924',0.300
'0:05.925',0.700
'0:05.926',1.000
'0:05.927',1.300
'0:05.928',1.600
'0:05.929',2.100
'0:05.930',2.300
'0:05.931',2.200
'0:05.932',1.700
'0:05.933',1.100
'0:05.934',0.700
'0:05.935',0.800
'0:05.936',1.600
'0:05.937',2.500
'0:05.938',3.300
'0:05.939',3.700
'0:05.940',3.600
'0:05.941',3.300
'0:05.942',3.000
'0:05.943',2.900
'0:05.944',3.000
'0:05.945',3.300
'0:05.946',3.700
'0:05.947',4.000
'0:05.948',4.200
'0:05.949',4.200
'0:05.950',4.000
'0:05.951',4.000
'0:05.952',4.200
'0:05.953',4.800
'0:05.954',5.800
'0:05.955',7.000
'0:05.956',8.200
'0:05.957',9.200
'0:05.958',10.100
'0:05.959',10.800
'0:05.960',11.100
'0:05.961',10.900
'0:05.962',10.000
'0:05.963',8.700
'0:05.964',7.100
'0:05.965',5.800
'0:05.966',4.900
'0:05.967',4.400
'0:05.968',4.200
'0:05.969',3.900
'0:05.970',3.600
'0:05.971',3.200
'0:05.972',2.900
'0:05.973',2.700
'0:05.974',2.700
'0:05.975',2.800
'0:05.976',3.000
'0:05.977',3.300
'0:05.978',3.800
'0:05.979',4.200
'0:05.980',4.600
'0:05.981',4.800
'0:05.982',4.600
'0:05.983',4.100
'0:05.984',3.400
'0:05.985',2.800
'0:05.986',2.400
'0:05.987',2.600
'0:05.988',3.200
'0:05.989',4.300
'0:05.990',5.400
'0:05.991',6.100
'0:05.992',6.100
'0:05.993',5.400
'0:05.994',4.200
'0:05.995',3.200
'0:05.996',2.600
'0:05.997',2.700
'0:05.998',3.300
'0:05.999',3.900
'0:06.000',4.300
'0:06.001',4.200
'0:06.002',3.700
'0:06.003',3.100
'0:06.004',2.600
'0:06.005',2.300
'0:06.006',2.400
'0:06.007',2.600
'0:06.008',2.600
'0:06.009',2.400
'0:06.010',1.800
'0:06.011',1.000
'0:06.012',0.500
'0:06.013',0.400
'0:06.014',0.900
'0:06.015',1.900
'0:06.016',2.900
'0:06.017',3.700
'0:06.018',3.800
'0:06.019',3.500
'0:06.020',3.000
'0:06.021',2.600
'0:06.022',2.600
'0:06.023',2.800
'0:06.024',3.200
'0:06.025',3.400
'0:06.026',3.300
'0:06.027',3.200
'0:06.028',3.000
'0:06.029',2.900
'0:06.030',2.900
'0:06.031',3.000
'0:06.032',3.000
'0:06.033',2.900
'0:06.034',2.600
'0:06.035',2.500
'0:06.036',2.600
'0:06.037',2.900
'0:06.038',3.300
'0:06.039',3.500
'0:06.040',3.400
'0:06.041',3.000
'0:06.042',2.600
'0:06.043',2.700
'0:06.044',3.600
'0:06.045',5.200
'0:06.046',7.300
'0:06.047',9.200
'0:06.048',10.500
'0:06.049',11.000
'0:06.050',10.900
'0:06.051',10.500
'0:06.052',10.200
'0:06.053',10.100
'0:06.054',10.200
'0:06.055',10.000
'0:06.056',9.300
'0:06.057',7.900
'0:06.058',6.000
'0:06.059',4.100
'0:06.060',2.600
'0:06.061',2.100
'0:06.062',2.700
'0:06.063',4.100
'0:06.064',5.700
'0:06.065',6.900
'0:06.066',7.400
'0:06.067',7.100
'0:06.068',6.200
'0:06.069',5.200
'0:06.070',4.400
'0:06.071',3.900
'0:06.072',3.700
'0:06.073',3.600
'0:06.074',3.400
'0:06.075',3.300
'0:06.076',3.200
'0:06.077',3.400
'0:06.078',3.700
'0:06.079',4.100
'0:06.080',4.300
'0:06.081',4.300
'0:06.082',4.000
'0:06.083',3.600
'0:06.084',3.200
'0:06.085',2.900
'0:06.086',2.800
'0:06.087',2.800
'0:06.088',2.600
'0:06.089',2.400
'0:06.090',2.100
'0:06.091',2.100
'0:06.092',2.400
'0:06.093',2.900
'0:06.094',3.500
'0:06.095',3.800
'0:06.096',3.800
'0:06.097',3.500
'0:06.098',3.200
'0:06.099',3.200
'0:06.100',3.300
'0:06.101',3.400
'0:06.102',3.500
'0:06.103',3.600
'0:06.104',3.700
'0:06.105',4.000
'0:06.106',4.500
'0:06.107',5.100
'0:06.108',5.400
'0:06.109',5.300
'0:06.110',5.000
'0:06.111',4.900
'0:06.112',5.000
'0:06.113',5.500
'0:06.114',5.900
'0:06.115',5.900
'0:06.116',5.300
'0:06.117',4.100
'0:06.118',2.800
'0:06.119',1.900
'0:06.120',1.700
'0:06.121',2.100
'0:06.122',3.000
'0:06.123',3.900
'0:06.124',4.500
'0:06.125',4.800
'0:06.126',4.800
'0:06.127',4.700
'0:06.128',4.800
'0:06.129',5.200
'0:06.130',5.500
'0:06.131',5.800
'0:06.132',5.700
'0:06.133',5.300
'0:06.134',4.900
'0:06.135',5.000
'0:06.136',5.900
'0:06.137',7.500
'0:06.138',9.400
'0:06.139',11.000
'0:06.140',11.800
'0:06.141',11.900
'0:06.142',11.600
'0:06.143',11.300
'0:06.144',11.400
'0:06.145',11.700
'0:06.146',11.700
'0:06.147',11.000
'0:06.148',9.400
'0:06.149',7.400
'0:06.150',5.600
'0:06.151',4.600
'0:06.152',4.500
'0:06.153',4.800
'0:06.154',4.900
'0:06.155',4.400
'0:06.156',3.200
'0:06.157',1.700
'0:06.158',0.300
'0:06.159',-0.700
'0:06.160',-1.200
'0:06.161',-1.500
'0:06.162',-1.700
'0:06.163',-2.000
'0:06.164',-2.300
'0:06.165',-2.700
'0:06.166',-3.200
'0:06.167',-3.700
'0:06.168',-4.400
'0:06.169',-5.100
'0:06.170',-5.700
'0:06.171',-5.900
'0:06.172',-5.900
'0:06.173',-5.800
'0:06.174',-5.600
'0:06.175',-5.400
'0:06.176',-5.200
'0:06.177',-5.000
'0:06.178',-4.600
'0:06.179',-4.200
'0:06.180',-3.700
'0:06.181',-3.400
'0:06.182',-3.100
'0:06.183',-2.900
'0:06.184',-2.700
'0:06.185',-2.500
'0:06.186',-2.300
'0:06.187',-2.100
'0:06.188',-2.000
'0:06.189',-2.100
'0:06.190',-2.300
'0:06.191',-2.600
'0:06.192',-2.900
'0:06.193',-3.100
'0:06.194',-3.100
'0:06.195',-2.900
'0:06.196',-2.500
'0:06.197',-1.900
'0:06.198',-1.400
'0:06.199',-0.900
'0:06.200',-0.500
'0:06.201',-0.300
'0:06.202',-0.200
'0:06.203',0.000
'0:06.204',0.200
'0:06.205',0.600
'0:06.206',1.100
'0:06.207',1.400
'0:06.208',1.500
'0:06.209',1.600
'0:06.210',1.700
'0:06.211',2.000
'0:06.212',2.600
'0:06.213',3.400
'0:06.214',3.900
'0:06.215',4.000
'0:06.216',3.700
'0:06.217',3.300
'0:06.218',2.900
'0:06.219',3.000
'0:06.220',3.300
'0:06.221',3.500
'0:06.222',3.500
'0:06.223',3.000
'0:06.224',2.400
'0:06.225',1.900
'0:06.226',1.900
'0:06.227',2.500
'0:06.228',3.400
'0:06.229',4.100
'0:06.230',4.300
'0:06.231',4.000
'0:06.232',3.500
'0:06.233',3.200
'0:06.234',3.500
'0:06.235',4.300
'0:06.236',5.400
'0:06.237',6.200
'0:06.238',6.600
'0:06.239',6.300
'0:06.240',5.700
'0:06.241',5.100
'0:06.242',4.700
'0:06.243',4.600
'0:06.244',4.600
'0:06.245',4.500
'0:06.246',4.100
'0:06.247',3.500
'0:06.248',2.800
'0:06.249',2.300
'0:06.250',2.400
'0:06.251',3.000
'0:06.252',4.200
'0:06.253',5.800
'0:06.254',7.700
'0:06.255',10.000
'0:06.256',12.600
'0:06.257',15.400
'0:06.258',18.300
'0:06.259',20.800
'0:06.260',22.600
'0:06.261',23.200
'0:06.262',22.800
'0:06.263',21.700
'0:06.264',20.200
'0:06.265',18.900
'0:06.266',18.000
'0:06.267',17.500
'0:06.268',16.900
'0:06.269',16.200
'0:06.270',14.900
'0:06.271',13.200
'0:06.272',11.400
'0:06.273',9.700
'0:06.274',8.400
'0:06.275',7.500
'0:06.276',6.600
'0:06.277',5.800
'0:06.278',4.700
'0:06.279',3.200
'0:06.280',1.400
'0:06.281',-1.000
'0:06.282',-3.900
'0:06.283',-7.400
'0:06.284',-11.300
'0:06.285',-15.400
'0:06.286',-19.400
'0:06.287',-23.200
'0:06.288',-26.700
'0:06.289',-30.100
'0:06.290',-33.501
'0:06.291',-37.101
'0:06.292',-40.901
'0:06.293',-45.001
'0:06.294',-48.901
'0:06.295',-52.401
'0:06.296',-55.301
'0:06.297',-57.201
'0:06.298',-58.201
'0:06.299',-58.401
'0:06.300',-58.001
'0:06.301',-57.101
'0:06.302',-55.401
'0:06.303',-53.001
'0:06.304',-49.701
'0:06.305',-45.501
'0:06.306',-40.601
'0:06.307',-35.301
'0:06.308',-30.000
'0:06.309',-25.000
'0:06.310',-20.700
'0:06.311',-17.200
'0:06.312',-14.600
'0:06.313',-12.600
'0:06.314',-11.000
'0:06.315',-9.500
'0:06.316',-7.800
'0:06.317',-5.700
'0:06.318',-3.300
'0:06.319',-0.800
'0:06.320',1.700
'0:06.321',4.000
'0:06.322',5.700
'0:06.323',6.900
'0:06.324',7.500
'0:06.325',7.600
'0:06.326',7.300
'0:06.327',6.700
'0:06.328',5.900
'0:06.329',4.900
'0:06.330',3.800
'0:06.331',2.700
'0:06.332',1.700
'0:06.333',1.100
'0:06.334',0.800
'0:06.335',0.900
'0:06.336',1.100
'0:06.337',1.200
'0:06.338',1.200
'0:06.339',1.100
'0:06.340',1.000
'0:06.341',1.000
'0:06.342',1.100
'0:06.343',1.200
'0:06.344',1.300
'0:06.345',1.500
'0:06.346',1.600
'0:06.347',1.700
'0:06.348',1.600
'0:06.349',1.200
'0:06.350',0.400
'0:06.351',-0.400
'0:06.352',-1.100
'0:06.353',-1.300
'0:06.354',-0.800
'0:06.355',0.000
'0:06.356',0.900
'0:06.357',1.600
'0:06.358',1.900
'0:06.359',2.000
'0:06.360',2.200
'0:06.361',2.500
'0:06.362',2.900
'0:06.363',2.900
'0:06.364',2.600
'0:06.365',1.800
'0:06.366',1.100
'0:06.367',0.700
'0:06.368',0.700
'0:06.369',1.100
'0:06.370',1.500
'0:06.371',1.600
'0:06.372',1.500
'0:06.373',1.300
'0:06.374',1.500
'0:06.375',2.000
'0:06.376',2.600
'0:06.377',2.800
'0:06.378',2.400
'0:06.379',1.500
'0:06.380',0.400
'0:06.381',-0.100
'0:06.382',0.300
'0:06.383',1.300
'0:06.384',2.500
'0:06.385',3.300
'0:06.386',3.200
'0:06.387',2.600
'0:06.388',1.800
'0:06.389',1.300
'0:06.390',1.200
'0:06.391',1.500
'0:06.392',2.000
'0:06.393',2.200
'0:06.394',2.100
'0:06.395',1.700
'0:06.396',1.300
'0:06.397',0.900
'0:06.398',0.600
'0:06.399',0.500
'0:06.400',0.400
'0:06.401',0.500
'0:06.402',0.800
'0:06.403',1.300
'0:06.404',1.900
'0:06.405',2.500
'0:06.406',2.900
'0:06.407',2.900
'0:06.408',2.600
'0:06.409',2.300
'0:06.410',2.200
'0:06.411',2.400
'0:06.412',2.900
'0:06.413',3.600
'0:06.414',4.100
'0:06.415',4.300
'0:06.416',4.200
'0:06.417',3.900
'0:06.418',3.700
'0:06.419',3.700
'0:06.420',3.900
'0:06.421',4.300
'0:06.422',4.900
'0:06.423',5.500
'0:06.424',6.000
'0:06.425',6.200
'0:06.426',6.000
'0:06.427',5.300
'0:06.428',4.100
'0:06.429',2.700
'0:06.430',1.300
'0:06.431',0.100
'0:06.432',-0.600
'0:06.433',-1.100
'0:06.434',-1.400
'0:06.435',-1.700
'0:06.436',-2.100
'0:06.437',-2.600
'0:06.438',-2.900
'0:06.439',-3.000
'0:06.440',-2.900
'0:06.441',-2.800
'0:06.442',-2.700
'0:06.443',-2.900
'0:06.444',-3.300
'0:06.445',-3.700
'0:06.446',-3.900
'0:06.447',-3.900
'0:06.448',-3.600
'0:06.449',-3.300
'0:06.450',-3.200
'0:06.451',-3.600
'0:06.452',-4.500
'0:06.453',-5.600
'0:06.454',-6.500
'0:06.455',-6.800
'0:06.456',-6.400
'0:06.457',-5.500
'0:06.458',-4.500
'0:06.459',-4.000
'0:06.460',-4.000
'0:06.461',-4.300
'0:06.462',-4.800
'0:06.463',-5.200
'0:06.464',-5.600
'0:06.465',-6.100
'0:06.466',-6.800
'0:06.467',-7.800
'0:06.468',-8.700
'0:06.469',-9.400
'0:06.470',-9.700
'0:06.471',-9.700
'0:06.472',-9.700
'0:06.473',-9.900
'0:06.474',-10.200
'0:06.475',-10.700
'0:06.476',-11.000
'0:06.477',-11.300
'0:06.478',-11.600
'0:06.479',-12.000
'0:06.480',-12.700
'0:06.481',-13.500
'0:06.482',-14.500
'0:06.483',-15.500
'0:06.484',-16.300
'0:06.485',-17.000
'0:06.486',-17.300
'0:06.487',-17.500
'0:06.488',-17.300
'0:06.489',-17.100
'0:06.490',-16.700
'0:06.491',-16.300
'0:06.492',-15.600
'0:06.493',-14.900
'0:06.494',-14.000
'0:06.495',-13.500
'0:06.496',-13.400
'0:06.497',-14.000
'0:06.498',-15.100
'0:06.499',-16.300
'0:06.500',-17.100
'0:06.501',-17.400
'0:06.502',-17.200
'0:06.503',-16.800
'0:06.504',-16.500
'0:06.505',-16.600
'0:06.506',-16.800
'0:06.507',-17.000
'0:06.508',-17.100
'0:06.509',-16.800
'0:06.510',-16.500
'0:06.511',-16.200
'0:06.512',-16.000
'0:06.513',-15.900
'0:06.514',-15.700
'0:06.515',-15.300
'0:06.516',-14.500
'0:06.517',-13.400
'0:06.518',-12.200
'0:06.519',-11.200
'0:06.520',-10.700
'0:06.521',-11.000
'0:06.522',-12.000
'0:06.523',-13.600
'0:06.524',-15.500
'0:06.525',-17.100
'0:06.526',-18.100
'0:06.527',-18.500
'0:06.528',-18.500
'0:06.529',-18.400
'0:06.530',-18.500
'0:06.531',-18.700
'0:06.532',-18.900
'0:06.533',-18.700
'0:06.534',-18.200
'0:06.535',-17.600
'0:06.536',-17.100
'0:06.537',-17.000
'0:06.538',-17.300
'0:06.539',-17.700
'0:06.540',-17.800
'0:06.541',-17.600
'0:06.542',-17.100
'0:06.543',-16.700
'0:06.544',-16.700
'0:06.545',-17.000
'0:06.546',-17.300
'0:06.547',-17.300
'0:06.548',-16.800
'0:06.549',-15.900
'0:06.550',-14.900
'0:06.551',-14.100
'0:06.552',-13.500
'0:06.553',-13.100
'0:06.554',-12.700
'0:06.555',-12.200
'0:06.556',-11.700
'0:06.557',-11.200
'0:06.558',-10.700
'0:06.559',-10.100
'0:06.560',-9.300
'0:06.561',-8.400
'0:06.562',-7.500
'0:06.563',-6.700
'0:06.564',-6.300
'0:06.565',-6.000
'0:06.566',-5.700
'0:06.567',-5.200
'0:06.568',-4.400
'0:06.569',-3.700
'0:06.570',-3.100
'0:06.571',-2.800
'0:06.572',-2.700
'0:06.573',-2.700
'0:06.574',-2.600
'0:06.575',-2.400
'0:06.576',-2.000
'0:06.577',-1.600
'0:06.578',-1.100
'0:06.579',-0.700
'0:06.580',-0.400
'0:06.581',-0.400
'0:06.582',-0.500
'0:06.583',-0.700
'0:06.584',-0.600
'0:06.585',-0.300
'0:06.586',0.200
'0:06.587',0.700
'0:06.588',1.200
'0:06.589',1.400
'0:06.590',1.400
'0:06.591',1.300
'0:06.592',1.300
'0:06.593',1.500
'0:06.594',1.800
'0:06.595',2.400
'0:06.596',3.200
'0:06.597',4.100
'0:06.598',5.100
'0:06.599',5.800
'0:06.600',6.200
'0:06.601',6.100
'0:06.602',5.800
'0:06.603',5.600
'0:06.604',5.800
'0:06.605',6.500
'0:06.606',7.400
'0:06.607',8.300
'0:06.608',8.900
'0:06.609',8.900
'0:06.610',8.500
'0:06.611',7.800
'0:06.612',7.300
'0:06.613',7.200
'0:06.614',7.600
'0:06.615',8.000
'0:06.616',8.100
'0:06.617',7.500
'0:06.618',6.200
'0:06.619',4.600
'0:06.620',3.200
'0:06.621',2.600
'0:06.622',3.000
'0:06.623',3.900
'0:06.624',4.800
'0:06.625',4.900
'0:06.626',4.200
'0:06.627',2.800
'0:06.628',1.400
'0:06.629',0.600
'0:06.630',0.600
'0:06.631',1.200
'0:06.632',1.900
'0:06.633',2.200
'0:06.634',1.900
'0:06.635',1.200
'0:06.636',0.500
'0:06.637',0.200
'0:06.638',0.300
'0:06.639',0.600
'0:06.640',0.700
'0:06.641',0.500
'0:06.642',0.100
'0:06.643',-0.200
'0:06.644',-0.100
'0:06.645',0.500
'0:06.646',1.300
'0:06.647',2.000
'0:06.648',2.500
'0:06.649',2.500
'0:06.650',2.300
'0:06.651',2.200
'0:06.652',2.300
'0:06.653',2.500
'0:06.654',2.700
'0:06.655',2.800
'0:06.656',2.900
'0:06.657',2.900
'0:06.658',3.100
'0:06.659',3.500
'0:06.660',4.000
'0:06.661',4.600
'0:06.662',5.000
'0:06.663',5.100
'0:06.664',4.900
'0:06.665',4.400
'0:06.666',3.700
'0:06.667',3.100
'0:06.668',2.500
'0:06.669',2.200
'0:06.670',2.100
'0:06.671',2.300
'0:06.672',2.900
'0:06.673',3.800
'0:06.674',4.600
'0:06.675',5.100
'0:06.676',4.900
'0:06.677',4.300
'0:06.678',3.500
'0:06.679',3.000
'0:06.680',3.300
'0:06.681',4.100
'0:06.682',5.100
'0:06.683',5.800
'0:06.684',5.900
'0:06.685',5.700
'0:06.686',5.600
'0:06.687',5.900
'0:06.688',6.900
'0:06.689',8.300
'0:06.690',9.500
'0:06.691',10.200
'0:06.692',10.200
'0:06.693',9.800
'0:06.694',9.300
'0:06.695',8.900
'0:06.696',8.500
'0:06.697',8.100
'0:06.698',7.400
'0:06.699',6.500
'0:06.700',5.500
'0:06.701',4.900
'0:06.702',4.700
'0:06.703',4.900
'0:06.704',5.400
'0:06.705',5.700
'0:06.706',5.700
'0:06.707',5.200
'0:06.708',4.300
'0:06.709',3.500
'0:06.710',2.900
'0:06.711',2.600
'0:06.712',2.400
'0:06.713',2.300
'0:06.714',1.900
'0:06.715',1.300
'0:06.716',0.900
'0:06.717',0.900
'0:06.718',1.600
'0:06.719',2.800
'0:06.720',4.000
'0:06.721',5.000
'0:06.722',5.700
'0:06.723',6.400
'0:06.724',7.500
'0:06.725',9.600
'0:06.726',12.600
'0:06.727',16.200
'0:06.728',19.600
'0:06.729',22.000
'0:06.730',22.900
'0:06.731',22.300
'0:06.732',20.400
'0:06.733',17.700
'0:06.734',14.700
'0:06.735',12.000
'0:06.736',9.600
'0:06.737',7.600
'0:06.738',5.800
'0:06.739',4.000
'0:06.740',2.200
'0:06.741',0.500
'0:06.742',-0.900
'0:06.743',-1.700
'0:06.744',-1.900
'0:06.745',-1.700
'0:06.746',-1.400
'0:06.747',-1.200
'0:06.748',-1.000
'0:06.749',-0.700
'0:06.750',-0.100
'0:06.751',0.700
'0:06.752',1.400
'0:06.753',1.700
'0:06.754',1.600
'0:06.755',1.300
'0:06.756',1.500
'0:06.757',2.400
'0:06.758',3.900
'0:06.759',5.600
'0:06.760',6.700
'0:06.761',6.900
'0:06.762',6.500
'0:06.763',5.800
'0:06.764',5.500
'0:06.765',5.900
'0:06.766',6.800
'0:06.767',7.900
'0:06.768',8.600
'0:06.769',8.800
'0:06.770',8.400
'0:06.771',7.800
'0:06.772',7.400
'0:06.773',7.300
'0:06.774',7.700
'0:06.775',8.300
'0:06.776',8.800
'0:06.777',9.200
'0:06.778',9.400
'0:06.779',9.500
'0:06.780',9.600
'0:06.781',9.400
'0:06.782',8.900
'0:06.783',7.900
'0:06.784',6.300
'0:06.785',4.400
'0:06.786',2.500
'0:06.787',1.000
'0:06.788',0.000
'0:06.789',-0.300
'0:06.790',-0.300
'0:06.791',-0.200
'0:06.792',-0.300
'0:06.793',-0.600
'0:06.794',-1.200
'0:06.795',-1.900
'0:06.796',-2.700
'0:06.797',-3.400
'0:06.798',-3.700
'0:06.799',-3.700
'0:06.800',-3.200
'0:06.801',-2.500
'0:06.802',-1.800
'0:06.803',-1.300
'0:06.804',-1.000
'0:06.805',-1.000
'0:06.806',-1.200
'0:06.807',-1.500
'0:06.808',-1.600
'0:06.809',-1.700
'0:06.810',-1.400
'0:06.811',-0.800
'0:06.812',0.100
'0:06.813',1.100
'0:06.814',2.000
'0:06.815',2.500
'0:06.816',2.600
'0:06.817',2.300
'0:06.818',1.900
'0:06.819',1.700
'0:06.820',1.800
'0:06.821',2.300
'0:06.822',2.800
