'Elapsed time','Direct_1','Abdomen_1','Abdomen_2','Abdomen_3','Abdomen_4','EDF Annotations'
'hh:mm:ss.mmm','uV','uV','uV','uV','uV',''
'0:00.000',28.800,-8.800,13.400,22.100,32.600,0.688
'0:00.001',26.700,-13.900,12.700,21.800,35.401,0.688
'0:00.002',24.800,-18.700,12.100,21.300,37.601,0.688
'0:00.003',23.800,-23.400,11.500,20.300,39.001,0.688
'0:00.004',23.600,-27.900,10.500,18.600,39.501,0.688
'0:00.005',23.700,-32.801,8.700,16.000,39.301,0.688
'0:00.006',23.700,-38.101,6.100,12.700,38.801,0.688
'0:00.007',23.700,-43.801,2.900,9.000,38.201,0.688
'0:00.008',23.800,-49.301,-0.300,5.400,37.501,0.688
'0:00.009',24.400,-54.001,-3.200,2.300,36.601,0.688
'0:00.010',25.400,-57.501,-5.300,0.000,35.301,0.578
'0:00.011',26.500,-59.501,-6.400,-1.600,33.501,0.578
'0:00.012',27.400,-60.401,-6.700,-2.500,31.600,0.578
'0:00.013',27.900,-60.501,-6.200,-2.900,30.000,0.578
'0:00.014',28.300,-60.301,-5.500,-2.700,29.100,0.578
'0:00.015',28.600,-59.701,-4.700,-1.900,29.100,0.578
'0:00.016',28.900,-58.901,-4.200,-0.700,29.600,0.578
'0:00.017',28.900,-57.601,-4.000,0.700,30.100,0.578
'0:00.018',28.500,-55.701,-3.800,1.600,29.700,0.578
'0:00.019',27.800,-53.001,-3.600,1.500,27.800,0.578
'0:00.020',27.600,-49.401,-3.300,0.200,24.100,0.668
'0:00.021',28.400,-44.901,-3.000,-2.100,18.800,0.668
'0:00.022',30.400,-39.601,-3.100,-4.700,12.600,0.668
'0:00.023',32.901,-33.701,-3.800,-6.900,6.200,0.668
'0:00.024',34.701,-27.800,-5.000,-8.400,0.100,0.668
'0:00.025',35.001,-22.200,-6.400,-9.300,-4.900,0.668
'0:00.026',33.901,-17.200,-7.700,-9.900,-8.700,0.668
'0:00.027',32.200,-12.900,-8.400,-10.600,-11.200,0.668
'0:00.028',31.500,-9.400,-8.800,-11.300,-12.700,0.668
'0:00.029',32.801,-6.600,-8.800,-11.900,-13.400,0.668
'0:00.030',35.901,-4.500,-8.600,-12.200,-13.600,0.680
'0:00.031',39.901,-2.700,-8.500,-11.900,-13.500,0.680
'0:00.032',43.301,-1.100,-8.400,-11.300,-13.500,0.680
'0:00.033',45.101,0.700,-8.300,-10.600,-13.900,0.680
'0:00.034',45.401,2.700,-8.300,-10.300,-14.800,0.680
'0:00.035',45.001,4.600,-8.600,-10.500,-16.300,0.680
'0:00.036',44.801,6.000,-9.600,-11.400,-18.500,0.680
'0:00.037',45.301,6.400,-11.400,-12.800,-20.900,0.680
'0:00.038',46.201,5.700,-13.600,-14.300,-23.300,0.680
'0:00.039',46.601,4.300,-15.800,-15.500,-25.000,0.680
'0:00.040',46.001,2.700,-17.400,-16.000,-25.900,0.720
'0:00.041',44.801,1.800,-18.000,-15.500,-25.800,0.720
'0:00.042',43.901,2.000,-17.800,-14.100,-25.000,0.720
'0:00.043',44.201,2.900,-17.000,-12.200,-24.200,0.720
'0:00.044',46.201,4.100,-16.200,-10.300,-23.600,0.720
'0:00.045',48.901,4.700,-15.800,-8.900,-23.300,0.720
'0:00.046',50.701,4.500,-15.700,-8.300,-23.200,0.720
'0:00.047',50.101,3.500,-15.700,-8.300,-22.800,0.720
'0:00.048',46.901,2.300,-15.700,-8.600,-21.900,0.720
'0:00.049',42.301,1.400,-15.500,-8.800,-20.600,0.720
'0:00.050',38.501,1.000,-15.100,-8.600,-19.000,0.579
'0:00.051',37.101,1.100,-14.600,-8.000,-17.300,0.579
'0:00.052',38.401,1.300,-14.200,-7.100,-15.800,0.579
'0:00.053',41.401,1.300,-13.700,-5.900,-14.300,0.579
'0:00.054',44.201,1.000,-12.900,-4.700,-12.700,0.579
'0:00.055',45.301,0.700,-11.800,-3.300,-11.000,0.579
'0:00.056',44.301,0.500,-10.400,-2.100,-9.500,0.579
'0:00.057',41.901,0.600,-9.100,-1.000,-8.500,0.579
'0:00.058',39.401,0.700,-8.300,-0.200,-8.200,0.579
'0:00.059',37.701,0.700,-8.200,0.300,-8.200,0.579
'0:00.060',37.101,0.400,-8.700,0.500,-8.300,0.822
'0:00.061',37.301,-0.100,-9.400,0.600,-7.800,0.822
'0:00.062',38.001,-0.700,-9.800,0.700,-6.900,0.822
'0:00.063',38.901,-0.900,-9.600,1.000,-5.900,0.822
'0:00.064',40.001,-0.500,-8.800,1.400,-5.300,0.822
'0:00.065',40.701,0.100,-8.000,2.000,-5.500,0.822
'0:00.066',40.401,0.800,-7.500,2.700,-6.500,0.822
'0:00.067',38.601,1.100,-7.600,3.200,-7.600,0.822
'0:00.068',35.601,1.000,-8.200,3.500,-8.300,0.822
'0:00.069',32.300,0.600,-8.700,3.400,-8.100,0.822
'0:00.070',30.100,0.400,-8.700,3.000,-7.300,0.579
'0:00.071',30.100,0.800,-8.000,2.200,-6.300,0.579
'0:00.072',32.000,1.800,-6.800,1.400,-5.800,0.579
'0:00.073',34.701,3.000,-5.500,0.600,-6.100,0.579
'0:00.074',36.401,3.900,-4.400,0.100,-7.000,0.579
'0:00.075',36.201,4.200,-3.800,-0.300,-7.900,0.579
'0:00.076',34.101,3.600,-3.400,-0.500,-8.400,0.579
'0:00.077',31.400,2.600,-3.200,-0.500,-8.300,0.579
'0:00.078',29.600,1.500,-2.900,-0.400,-7.900,0.579
'0:00.079',29.900,0.700,-2.800,-0.100,-7.400,0.579
'0:00.080',32.300,0.300,-3.000,0.300,-7.000,0.668
'0:00.081',35.901,0.200,-3.700,0.900,-6.800,0.668
'0:00.082',39.301,0.300,-4.600,1.400,-6.600,0.668
'0:00.083',41.401,0.400,-5.500,1.600,-6.300,0.668
'0:00.084',41.501,0.400,-5.800,1.400,-6.100,0.668
'0:00.085',39.801,0.300,-5.600,1.000,-6.100,0.668
'0:00.086',37.101,-0.100,-4.900,0.500,-6.400,0.668
'0:00.087',34.401,-0.900,-4.200,0.200,-6.900,0.668
'0:00.088',32.600,-1.800,-3.700,0.300,-7.100,0.668
'0:00.089',32.300,-2.500,-3.500,0.700,-6.800,0.668
'0:00.090',33.501,-2.500,-3.500,1.300,-6.200,0.680
'0:00.091',35.501,-1.600,-3.600,1.700,-5.500,0.680
'0:00.092',37.201,0.000,-3.800,1.800,-5.200,0.680
'0:00.093',38.001,1.500,-4.100,1.400,-5.300,0.680
'0:00.094',37.501,2.300,-4.500,0.800,-5.800,0.680
'0:00.095',36.301,2.300,-5.000,0.300,-6.200,0.680
'0:00.096',35.201,1.400,-5.200,-0.100,-6.200,0.680
'0:00.097',34.801,0.300,-4.800,-0.200,-5.900,0.680
'0:00.098',35.301,-0.400,-3.900,0.000,-5.400,0.680
'0:00.099',36.101,-0.700,-2.800,0.200,-5.100,0.680
'0:00.100',36.401,-0.600,-2.100,0.500,-5.100,0.708
'0:00.101',35.601,-0.400,-2.100,0.900,-5.300,0.708
'0:00.102',33.901,-0.300,-2.900,1.400,-5.300,0.708
'0:00.103',32.100,-0.500,-4.000,2.000,-5.000,0.708
'0:00.104',31.400,-0.700,-5.000,2.700,-4.300,0.708
'0:00.105',32.200,-0.800,-5.400,3.200,-3.700,0.708
'0:00.106',34.201,-0.800,-5.400,3.500,-3.500,0.708
'0:00.107',36.001,-0.600,-5.200,3.300,-3.800,0.708
'0:00.108',36.701,-0.300,-5.400,2.800,-4.600,0.708
'0:00.109',35.501,-0.200,-6.100,2.200,-5.600,0.708
'0:00.110',33.101,-0.100,-7.000,1.500,-6.200,0.579
'0:00.111',30.400,-0.100,-7.900,1.100,-6.300,0.579
'0:00.112',28.800,0.000,-8.400,0.800,-5.800,0.579
'0:00.113',28.800,0.100,-8.300,0.800,-4.800,0.579
'0:00.114',30.700,0.300,-7.700,0.800,-3.700,0.579
'0:00.115',33.801,0.500,-6.900,0.800,-2.900,0.579
'0:00.116',37.301,0.800,-6.000,0.800,-2.400,0.579
'0:00.117',40.401,1.300,-5.300,0.800,-2.300,0.579
'0:00.118',42.101,1.700,-4.700,1.000,-2.400,0.579
'0:00.119',41.801,2.000,-4.200,1.200,-2.300,0.579
'0:00.120',39.301,2.200,-3.700,1.600,-1.800,0.822
'0:00.121',35.301,2.200,-3.100,2.100,-0.800,0.822
'0:00.122',31.100,2.200,-2.400,2.600,0.300,0.822
'0:00.123',28.200,2.400,-1.600,3.000,1.300,0.822
'0:00.124',27.400,2.800,-0.700,3.200,1.600,0.822
'0:00.125',28.400,3.500,0.100,3.200,1.300,0.822
'0:00.126',30.200,4.200,0.600,3.000,0.500,0.822
'0:00.127',31.400,4.500,0.400,2.700,-0.200,0.822
'0:00.128',31.600,4.500,-0.300,2.400,-0.600,0.822
'0:00.129',31.100,4.300,-1.200,2.500,-0.300,0.822
'0:00.130',31.200,4.200,-2.000,2.800,0.300,0.579
'0:00.131',32.801,4.600,-2.300,3.400,1.000,0.579
'0:00.132',35.801,5.400,-2.100,4.000,1.500,0.579
'0:00.133',39.101,6.300,-1.700,4.200,1.600,0.579
'0:00.134',41.301,6.600,-1.500,3.900,1.300,0.579
'0:00.135',41.701,5.900,-1.800,3.400,0.800,0.579
'0:00.136',40.701,4.200,-2.700,2.900,0.200,0.579
'0:00.137',39.301,2.300,-4.000,2.800,-0.100,0.579
'0:00.138',38.801,0.700,-5.200,3.200,-0.300,0.579
'0:00.139',39.301,0.000,-6.200,4.000,-0.100,0.579
'0:00.140',40.101,0.200,-6.900,4.900,0.100,0.668
'0:00.141',40.001,0.700,-7.300,5.300,0.400,0.668
'0:00.142',38.001,0.600,-7.600,5.000,0.600,0.668
'0:00.143',34.601,-0.200,-7.900,4.000,0.700,0.668
'0:00.144',30.900,-1.700,-8.100,2.900,0.700,0.668
'0:00.145',28.800,-3.100,-8.300,1.800,0.500,0.668
'0:00.146',29.400,-4.000,-8.400,1.300,0.400,0.668
'0:00.147',32.600,-4.000,-8.400,1.100,0.300,0.668
'0:00.148',37.001,-3.600,-8.400,1.200,0.300,0.668
'0:00.149',40.501,-3.200,-8.300,1.300,0.400,0.668
'0:00.150',41.701,-3.300,-8.200,1.300,0.800,0.680
'0:00.151',40.301,-3.900,-7.900,1.200,1.100,0.680
'0:00.152',37.401,-4.600,-7.500,1.300,1.200,0.680
'0:00.153',34.801,-5.100,-7.300,1.400,1.100,0.680
'0:00.154',34.001,-5.400,-7.200,1.600,0.500,0.680
'0:00.155',35.401,-5.600,-7.300,1.500,-0.300,0.680
'0:00.156',38.101,-5.900,-7.600,1.100,-1.000,0.680
'0:00.157',41.001,-6.400,-7.800,0.500,-1.400,0.680
'0:00.158',42.701,-7.100,-7.900,0.000,-1.300,0.680
'0:00.159',42.801,-7.600,-8.000,-0.200,-1.100,0.680
'0:00.160',41.601,-7.900,-8.300,-0.100,-1.000,0.692
'0:00.161',39.601,-8.100,-9.100,0.100,-1.300,0.692
'0:00.162',37.501,-8.600,-10.400,0.200,-1.900,0.692
'0:00.163',35.801,-9.300,-12.000,0.300,-2.500,0.692
'0:00.164',34.901,-10.100,-13.300,0.500,-2.300,0.692
'0:00.165',34.801,-10.600,-13.900,1.100,-1.200,0.692
'0:00.166',35.801,-10.500,-13.400,2.400,0.800,0.692
'0:00.167',37.801,-9.600,-12.200,4.000,3.000,0.692
'0:00.168',40.401,-8.500,-10.600,5.600,4.900,0.692
'0:00.169',43.501,-7.400,-9.000,6.800,6.200,0.692
'0:00.170',46.601,-6.700,-7.700,7.500,7.200,0.579
'0:00.171',49.801,-6.300,-6.500,7.900,8.200,0.579
'0:00.172',53.601,-5.900,-5.000,8.300,9.900,0.579
'0:00.173',58.301,-5.000,-3.000,9.100,12.500,0.579
'0:00.174',64.401,-3.500,-0.200,10.500,16.300,0.579
'0:00.175',72.001,-1.400,3.200,12.600,21.100,0.579
'0:00.176',80.801,1.200,6.900,15.200,26.600,0.579
'0:00.177',90.501,4.000,10.600,18.200,32.300,0.579
'0:00.178',100.302,6.900,13.800,21.200,37.601,0.579
'0:00.179',109.502,9.600,16.100,23.700,41.301,0.579
'0:00.180',116.902,11.800,17.200,25.000,42.901,0.822
'0:00.181',121.402,12.900,16.700,24.800,41.801,0.822
'0:00.182',122.202,12.600,15.000,23.000,38.401,0.822
'0:00.183',119.102,10.800,12.300,20.000,33.701,0.822
'0:00.184',112.502,8.100,9.500,16.600,28.600,0.822
'0:00.185',103.502,5.100,6.800,13.400,23.800,0.822
'0:00.186',93.201,2.100,4.500,10.700,19.300,0.822
'0:00.187',82.201,-0.500,2.000,8.300,14.900,0.822
'0:00.188',70.601,-3.100,-1.200,5.800,10.100,0.822
'0:00.189',57.701,-5.900,-5.400,3.000,4.700,0.822
'0:00.190',43.501,-9.100,-10.500,-0.100,-0.700,0.579
'0:00.191',28.200,-12.300,-15.400,-3.000,-5.500,0.579
'0:00.192',13.200,-15.100,-19.200,-5.100,-8.700,0.579
'0:00.193',0.300,-17.000,-21.100,-6.000,-10.100,0.579
'0:00.194',-8.500,-17.700,-21.000,-5.800,-9.800,0.579
'0:00.195',-12.600,-17.400,-19.300,-4.800,-8.400,0.579
'0:00.196',-12.100,-16.500,-17.000,-3.600,-6.600,0.579
'0:00.197',-8.700,-15.600,-14.900,-2.600,-5.100,0.579
'0:00.198',-4.400,-14.900,-13.500,-2.000,-3.900,0.579
'0:00.199',-0.900,-14.800,-12.600,-1.600,-2.800,0.579
'0:00.200',1.500,-14.800,-12.000,-1.200,-1.400,0.668
'0:00.201',3.300,-14.700,-11.100,-0.300,0.500,0.668
'0:00.202',6.000,-14.100,-10.000,1.200,2.700,0.668
'0:00.203',10.600,-12.900,-8.600,3.200,4.700,0.668
'0:00.204',17.100,-11.300,-7.300,5.200,6.300,0.668
'0:00.205',24.300,-9.900,-6.400,6.800,7.200,0.668
'0:00.206',30.600,-9.100,-5.900,7.500,7.600,0.668
'0:00.207',34.401,-9.200,-5.700,7.400,7.700,0.668
'0:00.208',35.501,-10.000,-5.400,6.500,8.000,0.668
'0:00.209',34.901,-11.100,-4.800,5.300,8.200,0.668
'0:00.210',34.201,-12.000,-3.800,4.000,8.300,0.680
'0:00.211',34.801,-12.700,-2.600,3.100,8.000,0.680
'0:00.212',36.601,-13.300,-1.900,2.800,7.300,0.680
'0:00.213',38.801,-14.000,-1.800,2.900,6.700,0.680
'0:00.214',39.901,-15.000,-2.500,3.500,6.500,0.680
'0:00.215',39.001,-16.200,-3.700,4.200,7.000,0.680
'0:00.216',36.701,-17.200,-4.800,4.800,8.100,0.680
'0:00.217',34.401,-17.800,-5.400,5.100,9.300,0.680
'0:00.218',33.801,-17.900,-5.400,5.100,10.200,0.680
'0:00.219',35.701,-17.700,-4.900,4.800,10.600,0.680
'0:00.220',39.301,-17.500,-4.300,4.600,10.600,0.720
'0:00.221',42.901,-17.400,-4.200,4.700,10.800,0.720
'0:00.222',45.001,-17.400,-4.400,5.300,11.500,0.720
'0:00.223',44.701,-17.300,-4.700,6.300,12.500,0.720
'0:00.224',42.601,-16.800,-4.700,7.200,13.600,0.720
'0:00.225',39.901,-16.000,-4.200,7.900,14.500,0.720
'0:00.226',37.901,-15.100,-3.100,8.100,14.900,0.720
'0:00.227',37.001,-14.300,-1.800,8.100,14.900,0.720
'0:00.228',37.001,-13.700,-0.600,8.000,14.800,0.720
'0:00.229',37.501,-13.100,0.300,8.000,14.900,0.720
'0:00.230',37.901,-12.400,0.800,7.900,15.300,0.579
'0:00.231',38.501,-11.500,0.900,7.900,15.600,0.579
'0:00.232',39.501,-10.500,0.700,7.700,15.600,0.579
'0:00.233',40.901,-9.800,0.400,7.400,15.400,0.579
'0:00.234',42.301,-9.900,0.000,6.900,14.900,0.579
'0:00.235',43.401,-10.900,-0.600,6.400,14.500,0.579
'0:00.236',43.501,-12.500,-1.200,6.000,14.400,0.579
'0:00.237',42.701,-14.200,-1.800,5.900,14.500,0.579
'0:00.238',41.201,-15.600,-2.600,6.100,14.700,0.579
'0:00.239',39.701,-16.300,-3.400,6.400,14.800,0.579
'0:00.240',38.601,-16.700,-4.100,6.600,14.600,0.822
'0:00.241',38.301,-17.000,-4.700,6.600,14.000,0.822
'0:00.242',38.801,-17.600,-5.000,6.300,13.100,0.822
'0:00.243',39.801,-18.600,-5.100,5.500,12.100,0.822
'0:00.244',41.101,-19.800,-5.000,4.600,11.200,0.822
'0:00.245',42.101,-20.600,-4.800,3.800,10.700,0.822
'0:00.246',42.601,-21.000,-4.500,3.300,10.500,0.822
'0:00.247',42.401,-20.800,-4.200,3.300,10.700,0.822
'0:00.248',41.501,-20.200,-3.800,3.700,11.000,0.822
'0:00.249',40.401,-19.500,-3.500,4.300,11.200,0.822
'0:00.250',39.701,-19.100,-3.100,4.900,11.200,0.579
'0:00.251',39.501,-19.000,-3.000,5.300,11.000,0.579
'0:00.252',39.801,-19.100,-3.000,5.400,10.600,0.579
'0:00.253',40.001,-19.300,-2.900,5.300,10.300,0.579
'0:00.254',39.501,-19.600,-2.700,5.100,10.200,0.579
'0:00.255',38.201,-19.800,-2.300,4.800,10.300,0.579
'0:00.256',36.401,-19.900,-1.700,4.400,10.500,0.579
'0:00.257',35.301,-19.900,-1.200,4.000,10.800,0.579
'0:00.258',35.801,-19.800,-1.100,3.900,11.100,0.579
'0:00.259',38.001,-19.500,-1.400,4.300,11.400,0.579
'0:00.260',41.201,-18.900,-2.000,5.100,11.800,0.668
'0:00.261',43.901,-17.900,-2.300,6.400,12.200,0.668
'0:00.262',44.701,-16.800,-2.100,7.700,12.700,0.668
'0:00.263',43.301,-15.600,-1.300,8.700,13.200,0.668
'0:00.264',40.501,-14.600,-0.200,9.100,13.400,0.668
'0:00.265',38.001,-13.800,1.000,9.000,13.300,0.668
'0:00.266',37.301,-13.300,1.700,8.500,12.800,0.668
'0:00.267',38.701,-12.900,1.900,8.200,12.100,0.668
'0:00.268',41.501,-12.200,1.600,8.300,11.500,0.668
'0:00.269',43.901,-11.300,1.200,8.800,11.300,0.668
'0:00.270',44.601,-10.100,0.800,9.400,11.400,0.680
'0:00.271',43.001,-8.900,0.600,9.800,11.800,0.680
'0:00.272',40.101,-8.200,0.400,9.900,11.900,0.680
'0:00.273',37.201,-8.000,0.200,9.500,11.600,0.680
'0:00.274',35.701,-8.200,-0.200,9.100,10.900,0.680
'0:00.275',36.001,-8.300,-0.700,8.800,10.100,0.680
'0:00.276',37.701,-7.800,-1.000,9.000,9.400,0.680
'0:00.277',40.101,-6.500,-0.900,9.600,9.200,0.680
'0:00.278',41.901,-4.500,-0.400,10.400,9.500,0.680
'0:00.279',42.701,-2.300,0.400,11.400,9.900,0.680
'0:00.280',42.401,-0.500,1.000,12.200,10.200,0.704
'0:00.281',41.201,0.500,1.100,12.800,10.200,0.704
'0:00.282',39.401,0.800,0.600,13.000,9.900,0.704
'0:00.283',37.501,0.900,-0.300,12.800,9.500,0.704
'0:00.284',35.701,1.000,-1.200,12.300,9.100,0.704
'0:00.285',34.401,1.500,-1.800,11.500,8.800,0.704
'0:00.286',34.001,2.200,-1.900,10.700,8.500,0.704
'0:00.287',34.301,2.700,-1.700,9.800,8.200,0.704
'0:00.288',35.401,2.800,-1.400,9.000,7.900,0.704
'0:00.289',36.701,2.400,-1.500,8.200,7.600,0.704
'0:00.290',37.701,1.900,-1.900,7.500,7.300,0.579
'0:00.291',38.101,1.500,-2.300,7.000,7.100,0.579
'0:00.292',37.901,1.500,-2.500,6.900,6.700,0.579
'0:00.293',37.901,2.100,-2.600,7.300,6.200,0.579
'0:00.294',38.401,3.100,-2.500,8.100,5.400,0.579
'0:00.295',39.901,4.300,-2.700,9.100,4.600,0.579
'0:00.296',41.901,5.500,-3.100,10.100,3.800,0.579
'0:00.297',43.601,6.600,-3.700,10.800,3.300,0.579
'0:00.298',44.001,7.400,-4.200,11.000,3.000,0.579
'0:00.299',42.901,7.800,-4.400,10.800,3.100,0.579
'0:00.300',40.701,7.900,-4.300,10.300,3.400,0.822
'0:00.301',38.601,7.800,-3.900,9.600,3.500,0.822
'0:00.302',37.601,7.500,-3.600,8.800,3.200,0.822
'0:00.303',38.201,7.100,-3.500,7.900,2.500,0.822
'0:00.304',39.501,6.600,-3.400,7.200,1.400,0.822
'0:00.305',40.701,6.000,-3.300,6.700,0.400,0.822
'0:00.306',40.801,5.300,-3.000,6.500,-0.200,0.822
'0:00.307',39.901,4.700,-2.500,6.600,-0.400,0.822
'0:00.308',39.001,4.100,-2.100,6.800,-0.400,0.822
'0:00.309',39.101,3.900,-2.100,7.100,-0.600,0.822
'0:00.310',40.301,4.000,-2.400,7.300,-1.200,0.579
'0:00.311',42.101,4.300,-3.000,7.300,-2.200,0.579
'0:00.312',43.201,4.600,-3.600,7.200,-3.100,0.579
'0:00.313',42.901,4.800,-3.600,7.100,-3.300,0.579
'0:00.314',41.401,4.800,-3.000,6.800,-2.800,0.579
'0:00.315',40.101,4.900,-1.900,6.400,-1.800,0.579
'0:00.316',40.501,5.300,-0.900,5.900,-1.000,0.579
'0:00.317',43.101,5.700,-0.300,5.200,-0.900,0.579
'0:00.318',47.001,6.100,-0.300,4.600,-1.400,0.579
'0:00.319',50.401,6.200,-0.900,4.200,-2.100,0.579
'0:00.320',51.701,6.000,-1.600,4.000,-2.400,0.668
'0:00.321',50.201,5.800,-2.000,4.000,-2.100,0.668
'0:00.322',47.201,5.600,-2.000,4.000,-1.100,0.668
'0:00.323',44.601,5.800,-1.600,3.900,0.000,0.668
'0:00.324',43.901,6.300,-1.100,3.700,0.900,0.668
'0:00.325',45.401,6.700,-0.700,3.400,1.300,0.668
'0:00.326',47.901,7.000,-0.600,3.100,1.300,0.668
'0:00.327',49.701,7.100,-0.600,2.900,1.300,0.668
'0:00.328',49.301,7.000,-0.600,2.900,1.300,0.668
'0:00.329',46.901,7.200,-0.600,3.200,1.500,0.668
'0:00.330',43.501,7.700,-0.500,3.500,1.800,0.680
'0:00.331',41.201,8.600,-0.400,4.100,2.000,0.680
'0:00.332',40.901,9.800,-0.300,4.600,1.900,0.680
'0:00.333',42.901,11.000,0.100,5.100,1.700,0.680
'0:00.334',45.901,11.900,0.600,5.200,1.300,0.680
'0:00.335',48.401,12.400,1.500,5.100,0.800,0.680
'0:00.336',49.501,12.400,2.400,4.600,0.400,0.680
'0:00.337',49.101,12.000,3.200,4.000,0.300,0.680
'0:00.338',48.001,11.300,3.700,3.500,0.400,0.680
'0:00.339',47.201,10.500,3.800,3.300,0.500,0.680
'0:00.340',47.501,9.700,3.500,3.200,0.200,0.692
'0:00.341',48.901,9.100,2.800,3.100,-0.700,0.692
'0:00.342',50.801,8.500,1.600,2.800,-2.100,0.692
'0:00.343',52.401,7.800,-0.300,2.300,-3.700,0.692
'0:00.344',52.901,6.900,-2.700,1.800,-4.900,0.692
'0:00.345',52.001,6.000,-5.200,1.500,-5.000,0.692
'0:00.346',50.101,5.400,-7.300,1.500,-4.200,0.692
'0:00.347',47.501,5.300,-8.400,1.700,-2.800,0.692
'0:00.348',45.401,5.800,-8.400,1.900,-1.700,0.692
'0:00.349',44.501,6.600,-7.500,1.700,-1.400,0.692
'0:00.350',45.301,7.300,-6.400,1.000,-2.000,0.579
'0:00.351',47.701,7.600,-5.900,-0.200,-3.200,0.579
'0:00.352',50.401,7.300,-6.300,-1.400,-4.300,0.579
'0:00.353',52.301,6.600,-7.500,-2.100,-4.800,0.579
'0:00.354',52.201,6.000,-9.100,-2.200,-4.700,0.579
'0:00.355',50.301,5.700,-10.700,-1.600,-4.200,0.579
'0:00.356',47.501,5.800,-11.800,-0.700,-3.900,0.579
'0:00.357',45.301,6.100,-12.500,0.000,-4.100,0.579
'0:00.358',44.701,6.000,-12.800,0.400,-4.700,0.579
'0:00.359',45.901,5.300,-13.000,0.200,-5.500,0.579
'0:00.360',47.701,4.100,-12.900,-0.200,-6.000,0.822
'0:00.361',49.101,2.800,-12.800,-0.500,-6.100,0.822
'0:00.362',49.001,1.900,-12.400,-0.500,-5.800,0.822
'0:00.363',47.401,1.700,-11.800,-0.100,-5.500,0.822
'0:00.364',45.401,2.000,-11.100,0.400,-5.400,0.822
'0:00.365',43.901,2.500,-10.500,1.000,-5.500,0.822
'0:00.366',43.901,2.800,-9.900,1.300,-5.700,0.822
'0:00.367',45.601,3.000,-9.400,1.500,-5.700,0.822
'0:00.368',48.401,3.000,-8.800,1.700,-5.500,0.822
'0:00.369',51.001,3.200,-8.200,1.800,-5.100,0.822
'0:00.370',52.301,3.600,-7.800,1.800,-4.700,0.579
'0:00.371',51.701,4.000,-7.900,1.700,-4.500,0.579
'0:00.372',49.601,4.100,-8.400,1.500,-4.500,0.579
'0:00.373',47.301,3.800,-9.400,1.200,-4.800,0.579
'0:00.374',46.101,3.300,-10.400,1.000,-5.400,0.579
'0:00.375',46.501,2.900,-11.300,0.800,-6.200,0.579
'0:00.376',48.001,3.000,-11.700,0.800,-7.100,0.579
'0:00.377',49.201,3.500,-11.700,0.800,-7.900,0.579
'0:00.378',48.901,4.400,-11.400,0.900,-8.200,0.579
'0:00.379',47.201,5.200,-10.800,1.200,-8.200,0.579
'0:00.380',45.701,5.900,-9.800,1.800,-7.900,0.668
'0:00.381',45.801,6.500,-8.600,2.500,-7.600,0.668
'0:00.382',48.001,7.000,-7.100,3.100,-7.700,0.668
'0:00.383',51.001,7.500,-5.700,3.100,-8.100,0.668
'0:00.384',52.601,7.900,-4.900,2.500,-8.600,0.668
'0:00.385',51.501,8.000,-5.000,1.300,-8.800,0.668
'0:00.386',48.201,7.700,-5.800,-0.100,-8.600,0.668
'0:00.387',45.001,7.200,-7.000,-1.200,-8.000,0.668
'0:00.388',44.401,6.700,-8.100,-1.600,-7.300,0.668
'0:00.389',46.601,6.300,-8.700,-1.200,-7.000,0.668
'0:00.390',49.801,6.200,-8.800,-0.400,-7.200,0.680
'0:00.391',51.201,6.300,-8.500,0.600,-7.700,0.680
'0:00.392',49.301,6.400,-8.200,1.400,-8.100,0.680
'0:00.393',45.001,6.400,-7.700,1.800,-8.300,0.680
'0:00.394',41.301,6.200,-7.000,1.700,-8.000,0.680
'0:00.395',40.501,6.000,-6.200,1.200,-7.500,0.680
'0:00.396',42.701,5.800,-5.200,0.500,-7.000,0.680
'0:00.397',45.801,5.600,-4.400,-0.400,-6.600,0.680
'0:00.398',47.001,5.700,-4.000,-1.200,-6.300,0.680
'0:00.399',45.001,5.900,-4.100,-1.400,-6.000,0.680
'0:00.400',41.201,6.300,-4.400,-0.900,-5.500,0.720
'0:00.401',38.401,6.700,-4.400,0.000,-5.000,0.720
'0:00.402',38.701,6.800,-4.100,1.200,-4.500,0.720
'0:00.403',42.001,6.500,-3.500,2.000,-4.300,0.720
'0:00.404',46.101,5.600,-2.900,2.000,-4.600,0.720
'0:00.405',48.501,4.500,-2.700,1.500,-5.300,0.720
'0:00.406',48.401,3.500,-3.400,0.800,-6.100,0.720
'0:00.407',46.601,3.100,-4.700,0.300,-6.700,0.720
'0:00.408',44.801,3.300,-6.600,0.400,-6.800,0.720
'0:00.409',44.301,4.100,-8.400,0.900,-6.500,0.720
'0:00.410',44.801,5.000,-9.600,1.500,-5.800,0.579
'0:00.411',45.601,5.700,-10.000,1.800,-5.200,0.579
'0:00.412',46.001,5.800,-9.700,1.600,-5.100,0.579
'0:00.413',46.101,5.600,-9.000,1.100,-5.500,0.579
'0:00.414',46.301,5.200,-8.400,0.800,-6.400,0.579
'0:00.415',47.001,4.800,-8.300,0.900,-7.500,0.579
'0:00.416',47.801,4.600,-9.000,1.300,-8.100,0.579
'0:00.417',47.901,4.300,-10.000,1.800,-8.200,0.579
'0:00.418',47.101,4.000,-10.900,2.000,-7.700,0.579
'0:00.419',46.201,3.800,-11.300,1.900,-6.800,0.579
'0:00.420',46.001,3.900,-10.800,1.400,-5.800,0.822
'0:00.421',47.301,4.500,-9.600,0.800,-5.100,0.822
'0:00.422',49.301,5.600,-8.200,0.500,-4.400,0.822
'0:00.423',50.701,6.900,-7.400,0.600,-3.900,0.822
'0:00.424',50.401,8.000,-7.500,1.000,-3.400,0.822
'0:00.425',48.601,8.500,-8.500,1.600,-2.900,0.822
'0:00.426',46.801,8.300,-10.000,2.100,-2.800,0.822
'0:00.427',46.601,7.700,-11.300,2.300,-3.200,0.822
'0:00.428',48.701,7.100,-11.700,2.200,-4.000,0.822
'0:00.429',52.001,6.900,-11.000,1.800,-5.100,0.822
'0:00.430',54.601,7.000,-9.700,1.100,-6.000,0.579
'0:00.431',55.001,7.200,-8.100,0.300,-6.500,0.579
'0:00.432',52.801,7.100,-7.100,-0.500,-6.400,0.579
'0:00.433',49.301,6.400,-6.800,-1.100,-6.100,0.579
'0:00.434',46.001,5.300,-7.100,-1.700,-5.800,0.579
'0:00.435',44.301,4.100,-7.400,-1.900,-5.700,0.579
'0:00.436',44.101,3.300,-7.500,-1.900,-5.700,0.579
'0:00.437',44.601,3.200,-7.000,-1.600,-5.800,0.579
'0:00.438',45.001,3.700,-6.100,-0.900,-5.500,0.579
'0:00.439',44.801,4.600,-5.100,0.100,-4.700,0.579
'0:00.440',44.201,5.600,-4.400,1.200,-3.600,0.668
'0:00.441',43.701,6.300,-4.100,2.300,-2.600,0.668
'0:00.442',43.701,6.700,-4.300,3.100,-1.900,0.668
'0:00.443',44.201,6.700,-4.600,3.500,-1.800,0.668
'0:00.444',44.901,6.700,-4.900,3.400,-2.100,0.668
'0:00.445',45.301,6.800,-4.900,3.100,-2.800,0.668
'0:00.446',45.101,7.100,-4.500,2.600,-3.300,0.668
'0:00.447',44.301,7.800,-3.800,2.100,-3.700,0.668
'0:00.448',43.101,8.600,-3.000,1.800,-3.600,0.668
'0:00.449',42.001,9.500,-2.500,1.700,-3.300,0.668
'0:00.450',41.501,10.200,-2.200,1.800,-2.600,0.680
'0:00.451',42.001,10.700,-2.400,2.100,-1.800,0.680
'0:00.452',43.301,11.100,-2.700,2.600,-0.900,0.680
'0:00.453',44.701,11.600,-3.000,3.300,-0.100,0.680
'0:00.454',45.501,12.200,-3.000,4.200,0.400,0.680
'0:00.455',45.101,12.900,-2.700,5.000,0.500,0.680
'0:00.456',43.901,13.300,-2.400,5.500,0.200,0.680
'0:00.457',42.401,13.000,-2.200,5.300,-0.500,0.680
'0:00.458',41.301,12.200,-2.300,4.400,-1.100,0.680
'0:00.459',40.701,10.800,-2.700,3.100,-1.500,0.680
'0:00.460',40.401,9.600,-2.800,1.800,-1.400,0.708
'0:00.461',39.701,8.900,-2.400,1.100,-1.100,0.708
'0:00.462',38.601,8.700,-1.200,1.000,-0.800,0.708
'0:00.463',37.601,9.100,0.400,1.300,-0.700,0.708
'0:00.464',37.201,9.400,1.800,1.500,-1.300,0.708
'0:00.465',37.701,9.300,2.300,1.200,-2.300,0.708
'0:00.466',38.801,8.600,1.700,0.300,-3.600,0.708
'0:00.467',39.701,7.600,0.000,-0.800,-4.600,0.708
'0:00.468',40.101,6.700,-2.200,-1.700,-5.100,0.708
'0:00.469',40.301,6.200,-4.300,-2.000,-5.000,0.708
'0:00.470',40.901,6.200,-6.000,-1.900,-4.600,0.579
'0:00.471',42.501,6.400,-7.100,-1.500,-4.300,0.579
'0:00.472',44.601,6.500,-7.800,-1.300,-4.500,0.579
'0:00.473',46.201,6.300,-8.500,-1.500,-5.100,0.579
'0:00.474',45.801,5.700,-9.200,-2.100,-5.900,0.579
'0:00.475',43.101,4.900,-9.900,-3.000,-6.400,0.579
'0:00.476',38.901,4.100,-10.300,-3.900,-6.400,0.579
'0:00.477',34.701,3.500,-10.500,-4.700,-6.000,0.579
'0:00.478',32.100,3.200,-10.200,-5.300,-5.500,0.579
'0:00.479',31.800,3.200,-9.600,-5.500,-5.200,0.579
'0:00.480',33.501,3.400,-8.800,-5.400,-5.000,0.822
'0:00.481',36.401,3.600,-7.800,-4.800,-4.800,0.822
'0:00.482',39.101,3.800,-6.900,-3.900,-4.500,0.822
'0:00.483',40.701,3.800,-6.000,-3.000,-4.000,0.822
'0:00.484',40.601,3.800,-5.500,-2.100,-3.400,0.822
'0:00.485',38.601,3.700,-5.100,-1.400,-3.100,0.822
'0:00.486',35.301,3.600,-4.900,-1.000,-3.300,0.822
'0:00.487',31.900,3.500,-4.800,-0.900,-3.900,0.822
'0:00.488',29.900,3.400,-4.600,-1.100,-4.700,0.822
'0:00.489',30.300,3.100,-4.500,-1.600,-5.500,0.822
'0:00.490',33.301,2.700,-4.400,-2.600,-6.100,0.579
'0:00.491',37.901,2.300,-4.500,-3.700,-6.400,0.579
'0:00.492',42.301,2.100,-4.700,-4.700,-6.400,0.579
'0:00.493',44.801,2.600,-4.900,-5.000,-6.300,0.579
'0:00.494',45.001,3.600,-4.900,-4.600,-5.800,0.579
'0:00.495',43.601,4.800,-4.600,-3.500,-5.100,0.579
'0:00.496',42.101,5.900,-4.000,-2.400,-4.100,0.579
'0:00.497',41.501,6.400,-3.200,-1.600,-3.100,0.579
'0:00.498',42.101,6.100,-2.400,-1.500,-2.200,0.579
'0:00.499',43.301,5.400,-1.800,-1.900,-1.900,0.579
'0:00.500',44.201,4.700,-1.400,-2.300,-2.200,0.668
'0:00.501',44.601,4.300,-1.200,-2.600,-3.000,0.668
'0:00.502',44.901,4.200,-1.000,-2.700,-3.800,0.668
'0:00.503',45.601,4.400,-1.000,-2.800,-4.400,0.668
'0:00.504',46.701,4.300,-1.000,-3.200,-4.600,0.668
'0:00.505',47.701,3.900,-1.200,-3.700,-4.300,0.668
'0:00.506',47.501,3.400,-1.700,-4.200,-3.900,0.668
'0:00.507',45.901,2.900,-2.200,-4.200,-3.600,0.668
'0:00.508',43.501,2.900,-2.600,-3.700,-3.500,0.668
'0:00.509',41.701,3.400,-2.600,-2.700,-3.600,0.668
'0:00.510',41.601,4.200,-2.300,-1.900,-3.800,0.680
'0:00.511',43.501,5.000,-1.800,-1.600,-3.800,0.680
'0:00.512',45.701,5.600,-1.400,-1.800,-3.600,0.680
'0:00.513',46.501,6.000,-1.400,-2.400,-3.100,0.680
'0:00.514',44.701,6.100,-1.800,-2.800,-2.600,0.680
'0:00.515',40.701,6.100,-2.200,-2.700,-2.200,0.680
'0:00.516',36.501,6.100,-2.200,-2.100,-2.000,0.680
'0:00.517',34.301,6.200,-1.700,-1.400,-1.800,0.680
'0:00.518',34.901,6.400,-0.600,-1.000,-1.600,0.680
'0:00.519',37.401,6.400,0.600,-1.200,-1.300,0.680
'0:00.520',39.701,6.300,1.100,-2.000,-1.200,0.696
'0:00.521',40.101,5.700,0.800,-3.200,-1.200,0.696
'0:00.522',37.901,4.500,-0.600,-4.700,-1.700,0.696
'0:00.523',34.101,3.000,-2.300,-6.100,-2.500,0.696
'0:00.524',30.500,1.400,-3.700,-7.300,-3.700,0.696
'0:00.525',28.800,0.300,-4.200,-8.200,-4.800,0.696
'0:00.526',29.500,0.100,-3.900,-8.400,-5.500,0.696
'0:00.527',32.100,0.600,-3.000,-8.000,-5.800,0.696
'0:00.528',35.201,1.600,-2.400,-7.300,-5.600,0.696
'0:00.529',37.501,2.600,-2.500,-6.400,-5.200,0.696
'0:00.530',38.101,3.200,-3.300,-5.800,-4.800,0.579
'0:00.531',36.901,3.400,-4.400,-5.600,-4.500,0.579
'0:00.532',34.401,3.400,-5.200,-5.500,-4.400,0.579
'0:00.533',31.800,3.500,-5.500,-5.400,-4.300,0.579
'0:00.534',30.000,3.700,-5.300,-5.100,-4.400,0.579
'0:00.535',29.800,3.800,-5.100,-4.500,-4.400,0.579
'0:00.536',30.600,3.500,-5.500,-4.000,-4.600,0.579
'0:00.537',31.400,2.800,-6.300,-3.900,-4.700,0.579
'0:00.538',30.900,1.900,-7.400,-4.100,-4.800,0.579
'0:00.539',28.700,1.200,-7.900,-4.500,-4.600,0.579
'0:00.540',25.400,1.100,-7.400,-4.700,-4.000,0.822
'0:00.541',22.900,1.600,-5.800,-4.400,-3.000,0.822
'0:00.542',22.700,2.600,-3.600,-3.700,-1.900,0.822
'0:00.543',25.200,3.600,-1.300,-2.900,-1.000,0.822
'0:00.544',29.000,4.500,0.500,-2.200,-0.300,0.822
'0:00.545',32.000,5.100,1.400,-1.800,0.100,0.822
'0:00.546',32.500,5.700,1.500,-1.500,0.400,0.822
'0:00.547',30.300,6.400,1.200,-1.100,0.900,0.822
'0:00.548',26.600,7.300,0.900,-0.500,1.700,0.822
'0:00.549',23.600,8.500,1.000,0.000,2.500,0.822
'0:00.550',22.600,9.600,1.300,0.100,2.900,0.579
'0:00.551',24.000,10.200,1.700,-0.400,2.400,0.579
'0:00.552',26.500,10.100,1.800,-1.500,1.100,0.579
'0:00.553',28.500,9.100,1.500,-2.700,-0.800,0.579
'0:00.554',28.600,7.500,1.000,-3.400,-2.500,0.579
'0:00.555',26.700,5.900,0.400,-3.500,-3.400,0.579
'0:00.556',24.000,4.600,0.100,-3.100,-3.300,0.579
'0:00.557',21.600,4.000,0.100,-2.600,-2.500,0.579
'0:00.558',20.800,3.900,0.300,-2.400,-1.500,0.579
'0:00.559',21.500,4.100,0.200,-2.700,-0.700,0.579
'0:00.560',23.200,4.000,-0.400,-3.100,-0.600,0.668
'0:00.561',24.800,3.500,-1.400,-3.400,-1.100,0.668
'0:00.562',25.800,2.600,-2.800,-3.200,-2.000,0.668
'0:00.563',25.900,1.700,-4.200,-2.800,-2.900,0.668
'0:00.564',25.600,1.100,-5.400,-2.500,-3.600,0.668
'0:00.565',25.300,0.800,-6.600,-2.600,-4.100,0.668
'0:00.566',25.000,0.600,-7.600,-3.200,-4.300,0.668
'0:00.567',24.400,0.300,-8.400,-4.100,-4.400,0.668
'0:00.568',23.100,-0.400,-9.000,-5.000,-4.300,0.668
'0:00.569',21.200,-1.100,-9.000,-5.500,-4.100,0.668
'0:00.570',19.500,-1.800,-8.600,-5.700,-3.900,0.680
'0:00.571',19.100,-1.900,-8.000,-5.600,-3.700,0.680
'0:00.572',20.400,-1.600,-7.400,-5.500,-3.700,0.680
'0:00.573',23.000,-1.000,-7.100,-5.600,-3.700,0.680
'0:00.574',25.300,-0.400,-7.400,-5.800,-3.900,0.680
'0:00.575',25.800,-0.100,-8.100,-6.300,-4.100,0.680
'0:00.576',24.000,-0.300,-9.000,-6.900,-4.300,0.680
'0:00.577',20.600,-0.900,-9.900,-7.700,-4.300,0.680
'0:00.578',17.500,-1.700,-10.500,-8.400,-4.300,0.680
'0:00.579',16.200,-2.400,-10.800,-9.000,-4.100,0.680
'0:00.580',17.100,-2.800,-10.700,-9.200,-3.700,0.720
'0:00.581',19.300,-2.900,-10.100,-8.800,-3.100,0.720
'0:00.582',21.300,-2.600,-9.300,-8.000,-2.600,0.720
'0:00.583',22.100,-2.000,-8.500,-6.900,-2.200,0.720
'0:00.584',21.400,-1.200,-8.000,-6.100,-2.300,0.720
'0:00.585',20.300,-0.700,-7.900,-5.700,-2.900,0.720
'0:00.586',19.500,-0.700,-8.100,-5.900,-3.800,0.720
'0:00.587',19.600,-1.000,-8.200,-6.400,-4.800,0.720
'0:00.588',19.900,-1.500,-8.200,-7.100,-5.500,0.720
'0:00.589',19.800,-1.900,-7.900,-7.500,-5.700,0.720
'0:00.590',18.600,-1.800,-7.400,-7.400,-5.300,0.579
'0:00.591',16.500,-1.400,-7.000,-7.000,-4.600,0.579
'0:00.592',14.300,-0.700,-6.900,-6.300,-3.800,0.579
'0:00.593',13.000,-0.200,-6.900,-5.600,-3.200,0.579
'0:00.594',12.800,0.000,-7.000,-5.200,-2.900,0.579
'0:00.595',13.500,-0.100,-6.900,-5.100,-2.700,0.579
'0:00.596',14.300,-0.200,-6.600,-5.400,-2.700,0.579
'0:00.597',14.600,-0.200,-6.200,-5.800,-2.600,0.579
'0:00.598',14.400,0.100,-5.800,-6.000,-2.500,0.579
'0:00.599',13.800,0.400,-5.600,-5.900,-2.200,0.579
'0:00.600',13.200,0.800,-5.400,-5.300,-1.900,0.822
'0:00.601',12.900,1.000,-5.200,-4.600,-1.700,0.822
'0:00.602',12.900,1.100,-5.100,-3.900,-1.500,0.822
'0:00.603',13.200,1.300,-5.100,-3.500,-1.400,0.822
'0:00.604',13.600,1.600,-5.300,-3.500,-1.400,0.822
'0:00.605',13.900,2.000,-5.800,-3.800,-1.500,0.822
'0:00.606',14.000,2.200,-6.400,-4.200,-1.500,0.822
'0:00.607',14.000,2.400,-6.800,-4.500,-1.500,0.822
'0:00.608',14.100,2.500,-6.800,-4.600,-1.500,0.822
'0:00.609',14.600,2.500,-6.400,-4.400,-1.500,0.822
'0:00.610',15.200,2.600,-6.100,-4.300,-1.700,0.579
'0:00.611',15.500,2.800,-6.000,-4.100,-1.900,0.579
'0:00.612',14.900,2.900,-6.500,-4.100,-2.100,0.579
'0:00.613',13.300,3.000,-7.200,-4.000,-2.000,0.579
'0:00.614',11.100,3.000,-7.700,-3.900,-1.500,0.579
'0:00.615',9.400,3.100,-7.800,-3.600,-0.900,0.579
'0:00.616',8.900,3.400,-7.300,-3.300,-0.400,0.579
'0:00.617',10.200,3.700,-6.600,-2.900,-0.300,0.579
'0:00.618',12.500,4.000,-6.100,-2.300,-0.700,0.579
'0:00.619',14.500,4.100,-6.100,-1.700,-1.400,0.579
'0:00.620',15.000,3.700,-6.200,-1.200,-2.000,0.668
'0:00.621',13.800,3.000,-6.300,-0.900,-2.200,0.668
'0:00.622',11.600,2.200,-6.100,-1.000,-2.000,0.668
'0:00.623',9.900,1.700,-5.500,-1.600,-1.500,0.668
'0:00.624',9.600,1.600,-4.800,-2.300,-1.100,0.668
'0:00.625',10.700,2.000,-4.100,-3.000,-0.900,0.668
'0:00.626',12.300,2.800,-3.600,-3.200,-1.200,0.668
'0:00.627',13.500,3.600,-3.300,-2.900,-1.800,0.668
'0:00.628',13.800,4.100,-3.100,-2.600,-2.800,0.668
'0:00.629',13.300,4.100,-3.100,-2.700,-4.000,0.668
'0:00.630',12.600,3.500,-3.700,-3.400,-5.300,0.680
'0:00.631',11.900,2.400,-4.900,-4.900,-6.600,0.680
'0:00.632',11.300,1.100,-6.600,-6.700,-7.700,0.680
'0:00.633',10.600,0.000,-8.400,-8.200,-8.400,0.680
'0:00.634',9.600,-0.500,-9.500,-8.700,-8.400,0.680
'0:00.635',9.100,-0.300,-9.600,-8.300,-7.800,0.680
'0:00.636',9.600,0.500,-8.600,-7.000,-6.800,0.680
'0:00.637',11.800,1.500,-6.800,-5.500,-5.700,0.680
'0:00.638',15.600,2.400,-5.000,-4.400,-4.700,0.680
'0:00.639',20.800,3.000,-3.600,-3.700,-3.800,0.680
'0:00.640',26.500,3.500,-2.500,-3.400,-2.700,0.708
'0:00.641',32.500,4.100,-1.500,-2.700,-0.800,0.708
'0:00.642',38.601,5.200,0.100,-0.900,2.500,0.708
'0:00.643',45.001,7.100,2.900,2.400,7.500,0.708
'0:00.644',51.901,10.000,6.900,6.900,13.900,0.708
'0:00.645',59.601,13.500,11.700,11.900,20.800,0.708
'0:00.646',67.801,17.300,16.300,16.200,26.600,0.708
'0:00.647',76.301,20.500,19.600,18.900,30.100,0.708
'0:00.648',84.101,22.500,20.700,19.300,30.700,0.708
'0:00.649',90.301,22.600,19.700,17.800,28.600,0.708
'0:00.650',93.501,20.900,17.000,15.100,24.900,0.579
'0:00.651',93.001,18.000,13.600,12.000,20.800,0.579
'0:00.652',88.601,14.700,10.500,9.200,16.800,0.579
'0:00.653',81.101,11.900,8.100,6.900,13.200,0.579
'0:00.654',71.401,10.200,6.300,4.800,9.500,0.579
'0:00.655',60.301,9.300,4.600,2.600,5.300,0.579
'0:00.656',48.301,8.500,2.700,0.000,0.600,0.579
'0:00.657',35.501,7.200,0.400,-2.800,-4.400,0.579
'0:00.658',21.800,5.100,-2.100,-5.800,-9.100,0.579
'0:00.659',7.600,2.300,-4.400,-8.500,-13.000,0.579
'0:00.660',-6.200,-0.500,-6.300,-10.700,-15.800,0.822
'0:00.661',-18.800,-2.600,-7.500,-12.000,-17.300,0.822
'0:00.662',-29.100,-3.600,-8.000,-12.200,-17.600,0.822
'0:00.663',-36.501,-3.300,-7.800,-11.400,-16.500,0.822
'0:00.664',-40.501,-2.200,-6.800,-9.600,-14.300,0.822
'0:00.665',-40.801,-0.500,-5.200,-7.100,-11.300,0.822
'0:00.666',-38.001,1.300,-3.100,-4.400,-8.300,0.822
'0:00.667',-32.801,3.300,-1.000,-1.900,-5.700,0.822
'0:00.668',-26.600,5.300,0.900,0.100,-3.700,0.822
'0:00.669',-20.600,7.200,2.300,1.600,-2.300,0.822
'0:00.670',-15.600,8.900,3.100,2.700,-1.100,0.579
'0:00.671',-11.500,10.000,3.500,3.500,0.000,0.579
'0:00.672',-7.600,10.400,3.500,3.800,0.900,0.579
'0:00.673',-3.300,10.100,3.100,3.800,1.300,0.579
'0:00.674',1.400,9.200,2.300,3.400,1.000,0.579
'0:00.675',5.700,8.400,1.300,2.800,0.200,0.579
'0:00.676',8.600,8.200,0.400,2.500,-0.600,0.579
'0:00.677',9.500,9.000,0.100,3.000,-0.700,0.579
'0:00.678',9.100,10.800,0.700,4.600,0.200,0.579
'0:00.679',8.500,13.300,2.200,7.000,2.000,0.579
'0:00.680',9.000,15.900,4.200,9.900,4.100,0.500
'0:00.681',10.600,17.900,6.000,12.500,5.900,0.500
'0:00.682',12.600,19.000,7.500,14.600,7.300,0.500
'0:00.683',13.800,19.300,8.600,16.100,8.700,0.500
'0:00.684',13.700,19.200,9.600,17.200,10.400,0.500
'0:00.685',12.400,19.000,10.700,18.100,12.700,0.500
'0:00.686',10.700,18.700,11.800,19.000,15.200,0.500
'0:00.687',9.200,18.100,12.800,19.800,17.700,0.500
'0:00.688',8.200,16.700,13.100,20.400,19.800,0.500
'0:00.689',7.200,14.100,12.700,20.700,21.700,0.500
'0:00.690',5.800,10.300,11.700,20.800,23.600,0.500
'0:00.691',4.100,5.600,10.600,20.900,26.100,0.500
'0:00.692',2.600,0.800,9.900,21.100,29.200,0.500
'0:00.693',2.300,-3.900,9.700,21.500,32.400,0.500
'0:00.694',3.700,-8.300,9.700,21.900,35.301,0.500
'0:00.695',6.100,-12.400,9.600,21.900,37.601,0.500
'0:00.696',8.600,-16.600,8.900,21.500,39.301,0.500
'0:00.697',9.900,-21.000,7.700,20.400,40.801,0.500
'0:00.698',9.300,-25.600,6.200,19.000,42.501,0.500
'0:00.699',7.300,-30.400,4.500,17.200,44.101,0.500
'0:00.700',4.800,-35.201,2.700,15.300,45.401,0.500
'0:00.701',3.000,-40.101,0.600,13.200,45.801,0.500
'0:00.702',2.500,-44.801,-2.200,10.900,44.901,0.500
'0:00.703',3.500,-49.501,-5.500,8.000,43.101,0.500
'0:00.704',5.200,-53.801,-9.100,4.800,40.601,0.500
'0:00.705',6.900,-57.501,-12.300,1.500,38.201,0.500
'0:00.706',8.000,-60.301,-14.600,-1.600,36.401,0.500
'0:00.707',8.200,-62.001,-15.600,-3.800,35.201,0.500
'0:00.708',7.400,-62.601,-15.600,-4.800,34.701,0.500
'0:00.709',6.000,-62.201,-14.900,-4.600,34.301,0.500
'0:00.710',4.500,-61.101,-14.200,-3.500,33.801,0.500
'0:00.711',3.400,-59.701,-14.000,-2.100,32.600,0.500
'0:00.712',3.200,-58.001,-14.400,-1.200,30.400,0.500
'0:00.713',3.800,-56.101,-15.300,-1.300,27.100,0.500
'0:00.714',4.900,-53.801,-16.400,-2.600,22.900,0.500
'0:00.715',5.900,-51.001,-17.200,-4.700,18.100,0.500
'0:00.716',6.200,-47.301,-17.600,-7.200,13.200,0.500
'0:00.717',5.600,-42.701,-17.700,-9.600,8.100,0.500
'0:00.718',4.700,-37.301,-17.500,-11.800,2.900,0.500
'0:00.719',4.000,-31.500,-17.300,-13.700,-2.700,0.500
'0:00.720',4.200,-25.600,-17.200,-15.500,-8.400,0.500
'0:00.721',5.200,-20.200,-17.300,-17.200,-13.800,0.500
'0:00.722',6.700,-15.600,-17.500,-18.700,-18.200,0.500
'0:00.723',8.300,-12.100,-17.500,-19.700,-20.800,0.500
'0:00.724',9.700,-9.700,-17.400,-20.000,-21.700,0.500
'0:00.725',11.000,-8.000,-17.100,-19.800,-21.400,0.500
'0:00.726',12.500,-6.800,-16.600,-19.200,-20.600,0.500
'0:00.727',14.200,-5.800,-16.200,-18.700,-20.500,0.500
'0:00.728',15.300,-4.800,-16.000,-18.600,-21.200,0.500
'0:00.729',15.200,-3.800,-16.100,-19.000,-22.700,0.500
'0:00.730',13.500,-3.000,-16.700,-19.800,-24.500,0.500
'0:00.731',11.000,-2.300,-17.600,-20.700,-26.000,0.500
'0:00.732',9.100,-2.000,-18.500,-21.400,-27.000,0.500
'0:00.733',9.000,-1.900,-19.200,-21.900,-27.400,0.500
'0:00.734',11.200,-2.200,-19.600,-21.900,-27.500,0.500
'0:00.735',14.600,-2.400,-19.500,-21.700,-27.400,0.500
'0:00.736',17.500,-2.600,-19.100,-21.300,-27.200,0.500
'0:00.737',18.300,-2.600,-18.800,-20.700,-27.100,0.500
'0:00.738',16.900,-2.300,-18.600,-20.100,-26.800,0.500
'0:00.739',14.100,-1.800,-18.600,-19.200,-26.300,0.500
'0:00.740',11.300,-1.100,-18.600,-18.100,-25.300,0.500
'0:00.741',9.800,-0.600,-18.200,-16.500,-23.900,0.500
'0:00.742',9.400,-0.100,-17.400,-14.600,-22.000,0.500
'0:00.743',9.700,0.200,-16.200,-12.600,-20.100,0.500
'0:00.744',10.000,0.400,-14.800,-10.800,-18.500,0.500
'0:00.745',10.000,0.700,-13.500,-9.400,-17.400,0.500
'0:00.746',9.900,1.100,-12.300,-8.500,-16.600,0.500
'0:00.747',10.000,1.400,-11.300,-7.800,-15.900,0.500
'0:00.748',9.900,1.700,-10.400,-7.100,-15.000,0.500
'0:00.749',9.400,1.900,-9.400,-6.200,-13.700,0.500
'0:00.750',7.900,1.900,-8.700,-5.200,-12.100,0.500
'0:00.751',5.600,1.900,-8.300,-4.300,-10.300,0.500
'0:00.752',3.500,2.100,-8.400,-3.600,-8.600,0.500
'0:00.753',2.400,2.600,-8.800,-3.000,-7.000,0.500
'0:00.754',2.500,3.400,-9.100,-2.300,-5.600,0.500
'0:00.755',3.300,4.300,-9.000,-1.400,-4.400,0.500
'0:00.756',3.700,5.100,-8.500,-0.200,-3.500,0.500
'0:00.757',3.200,5.500,-7.700,0.900,-2.900,0.500
'0:00.758',1.900,5.500,-7.100,1.300,-2.800,0.500
'0:00.759',0.900,5.100,-7.000,0.700,-3.100,0.500
'0:00.760',1.600,4.600,-7.500,-0.900,-3.700,0.500
'0:00.761',4.200,4.100,-8.300,-3.000,-4.400,0.500
'0:00.762',8.000,3.600,-9.100,-5.100,-5.000,0.500
'0:00.763',11.300,3.100,-9.500,-6.600,-5.400,0.500
'0:00.764',12.700,2.700,-9.500,-7.200,-5.500,0.500
'0:00.765',11.600,2.400,-9.300,-7.100,-5.400,0.500
'0:00.766',8.800,2.400,-9.000,-6.500,-5.100,0.500
'0:00.767',5.700,2.600,-8.700,-5.600,-4.600,0.500
'0:00.768',3.900,3.000,-8.600,-4.600,-4.200,0.500
'0:00.769',4.000,3.400,-8.500,-3.700,-4.000,0.500
'0:00.770',5.600,3.500,-8.600,-3.000,-4.000,0.500
'0:00.771',7.700,3.300,-8.900,-2.700,-3.900,0.500
'0:00.772',9.200,2.800,-9.400,-2.600,-3.700,0.500
'0:00.773',9.300,2.300,-10.100,-2.700,-3.000,0.500
'0:00.774',8.300,2.100,-10.500,-2.700,-2.000,0.500
'0:00.775',7.000,2.500,-10.400,-2.400,-1.000,0.500
'0:00.776',6.300,3.300,-9.500,-1.800,-0.100,0.500
'0:00.777',6.800,4.600,-8.000,-0.700,0.400,0.500
'0:00.778',8.300,6.000,-6.300,0.400,0.700,0.500
'0:00.779',10.000,7.200,-4.900,1.400,1.000,0.500
'0:00.780',11.100,8.200,-3.900,2.100,1.400,0.500
'0:00.781',11.200,8.800,-3.400,2.600,2.100,0.500
'0:00.782',10.300,9.000,-3.200,2.900,2.700,0.500
'0:00.783',9.300,9.000,-2.900,2.900,3.100,0.500
'0:00.784',8.600,8.700,-2.500,2.700,3.000,0.500
'0:00.785',8.400,8.200,-2.000,2.100,2.300,0.500
'0:00.786',8.200,7.600,-1.600,1.200,1.300,0.500
'0:00.787',7.300,6.700,-1.700,0.000,0.000,0.500
'0:00.788',5.500,5.700,-2.500,-1.000,-1.400,0.500
'0:00.789',3.300,4.500,-3.700,-1.600,-2.600,0.500
'0:00.790',1.800,3.200,-5.300,-1.700,-3.500,0.500
'0:00.791',1.500,1.900,-6.900,-1.500,-4.000,0.500
'0:00.792',2.600,0.800,-8.000,-1.200,-4.100,0.500
'0:00.793',4.000,0.200,-8.600,-0.800,-3.700,0.500
'0:00.794',4.900,0.200,-8.500,-0.600,-2.800,0.500
'0:00.795',4.600,0.700,-7.900,-0.300,-1.900,0.500
'0:00.796',4.000,1.400,-7.100,0.100,-1.200,0.500
'0:00.797',4.200,1.900,-6.500,0.400,-1.000,0.500
'0:00.798',6.000,1.900,-6.300,0.800,-1.300,0.500
'0:00.799',8.900,1.500,-6.600,1.000,-2.000,0.500
'0:00.800',11.700,0.900,-7.100,1.000,-2.700,0.500
'0:00.801',12.500,0.500,-7.600,1.000,-3.200,0.500
'0:00.802',10.900,0.400,-8.000,0.800,-3.500,0.500
'0:00.803',7.400,0.700,-8.300,0.500,-3.600,0.500
'0:00.804',3.900,1.000,-8.400,0.100,-3.600,0.500
'0:00.805',2.400,0.900,-8.500,-0.400,-3.500,0.500
'0:00.806',3.300,0.500,-8.500,-1.100,-3.400,0.500
'0:00.807',6.200,-0.200,-8.300,-1.700,-2.900,0.500
'0:00.808',9.600,-0.600,-7.800,-2.000,-2.100,0.500
'0:00.809',11.900,-0.400,-7.000,-1.900,-0.900,0.500
'0:00.810',12.400,0.500,-6.100,-1.400,0.300,0.500
'0:00.811',11.600,1.800,-5.200,-0.700,1.100,0.500
'0:00.812',10.100,3.100,-4.500,-0.100,1.200,0.500
'0:00.813',8.700,3.800,-3.800,0.000,0.800,0.500
'0:00.814',7.800,3.900,-3.200,-0.400,0.000,0.500
'0:00.815',7.500,3.400,-2.700,-1.000,-0.600,0.500
'0:00.816',7.600,2.700,-2.400,-1.600,-0.900,0.500
'0:00.817',8.000,2.100,-2.400,-1.900,-0.600,0.500
'0:00.818',8.700,1.900,-2.600,-1.800,-0.200,0.500
'0:00.819',9.400,1.900,-2.900,-1.200,0.400,0.500
'0:00.820',9.800,2.100,-3.300,-0.500,0.700,0.500
'0:00.821',9.600,2.300,-3.500,0.100,0.800,0.500
'0:00.822',8.400,2.300,-3.800,0.400,0.600,0.500
'0:00.823',6.300,2.100,-4.200,0.500,0.400,0.500
'0:00.824',3.800,1.700,-4.700,0.400,0.200,0.500
'0:00.825',1.600,1.400,-5.400,0.400,0.200,0.500
'0:00.826',0.200,1.400,-5.800,0.400,0.500,0.500
'0:00.827',0.000,1.600,-5.800,0.500,0.800,0.500
'0:00.828',0.800,2.000,-5.400,0.600,1.000,0.500
'0:00.829',2.200,2.000,-4.800,0.600,0.900,0.500
'0:00.830',3.700,1.500,-4.400,0.500,0.600,0.500
'0:00.831',5.000,0.300,-4.600,0.200,0.100,0.500
'0:00.832',5.700,-1.100,-5.300,-0.300,-0.400,0.500
'0:00.833',5.600,-2.400,-6.200,-1.100,-0.700,0.500
'0:00.834',4.500,-2.800,-6.700,-1.900,-0.800,0.500
'0:00.835',2.800,-2.400,-6.500,-2.400,-0.800,0.500
'0:00.836',1.000,-1.300,-5.700,-2.500,-0.700,0.500
'0:00.837',0.300,-0.100,-4.800,-2.000,-0.800,0.500
'0:00.838',1.200,0.400,-4.400,-1.200,-1.100,0.500
'0:00.839',3.600,-0.100,-5.000,-0.600,-1.800,0.500
'0:00.840',6.200,-1.500,-6.300,-0.500,-2.500,0.500
'0:00.841',7.400,-3.100,-7.700,-0.900,-3.000,0.500
'0:00.842',6.300,-4.400,-8.600,-1.500,-3.100,0.500
'0:00.843',3.100,-4.900,-8.400,-2.000,-2.600,0.500
'0:00.844',-0.700,-4.800,-7.400,-2.000,-1.700,0.500
'0:00.845',-3.300,-4.400,-6.300,-1.800,-0.900,0.500
'0:00.846',-3.600,-4.100,-5.600,-1.800,-0.600,0.500
'0:00.847',-2.200,-4.300,-5.700,-2.100,-0.800,0.500
'0:00.848',-0.600,-4.900,-6.400,-2.700,-1.500,0.500
'0:00.849',-0.400,-5.700,-7.000,-3.300,-2.000,0.500
'0:00.850',-2.100,-6.300,-6.800,-3.200,-1.700,0.500
'0:00.851',-4.900,-6.500,-5.600,-2.200,-0.500,0.500
'0:00.852',-7.300,-6.100,-3.700,-0.800,1.100,0.500
'0:00.853',-8.300,-5.400,-1.900,0.400,2.500,0.500
'0:00.854',-7.700,-4.700,-0.900,0.900,3.100,0.500
'0:00.855',-6.500,-4.300,-0.900,0.400,2.800,0.500
'0:00.856',-5.500,-4.400,-1.800,-0.700,2.100,0.500
'0:00.857',-4.900,-5.100,-2.800,-1.600,1.600,0.500
'0:00.858',-4.300,-6.200,-3.300,-1.900,1.800,0.500
'0:00.859',-3.100,-7.000,-2.900,-1.400,2.500,0.500
'0:00.860',-1.200,-7.400,-1.900,-0.500,3.600,0.500
'0:00.861',0.600,-7.100,-0.800,0.200,4.500,0.500
'0:00.862',1.500,-6.400,-0.400,0.400,4.900,0.500
'0:00.863',1.000,-5.700,-1.000,0.200,5.100,0.500
'0:00.864',-0.600,-5.600,-2.400,-0.300,5.400,0.500
'0:00.865',-2.300,-6.200,-4.100,-0.600,5.700,0.500
'0:00.866',-3.400,-7.300,-5.400,-0.800,6.000,0.500
'0:00.867',-3.500,-8.600,-5.800,-0.900,6.100,0.500
'0:00.868',-3.400,-9.600,-5.300,-1.100,5.800,0.500
'0:00.869',-3.900,-9.900,-4.300,-1.500,5.300,0.500
'0:00.870',-5.500,-9.800,-3.100,-1.700,4.800,0.500
'0:00.871',-7.900,-9.300,-2.300,-1.400,4.700,0.500
'0:00.872',-10.000,-8.800,-2.000,-0.600,5.000,0.500
'0:00.873',-10.900,-8.600,-2.100,0.800,5.500,0.500
'0:00.874',-10.200,-8.800,-2.500,2.300,5.800,0.500
'0:00.875',-8.500,-9.100,-3.000,3.400,6.000,0.500
'0:00.876',-6.800,-9.300,-3.400,3.900,6.200,0.500
'0:00.877',-6.200,-9.400,-3.600,3.900,6.600,0.500
'0:00.878',-6.700,-9.100,-3.600,3.700,7.400,0.500
'0:00.879',-7.800,-8.700,-3.400,3.600,8.200,0.500
'0:00.880',-8.300,-8.400,-3.200,3.600,8.900,0.500
'0:00.881',-7.800,-8.500,-3.000,3.500,8.900,0.500
'0:00.882',-6.400,-9.200,-3.000,2.900,8.400,0.500
'0:00.883',-5.200,-10.400,-3.300,2.000,7.700,0.500
'0:00.884',-5.400,-11.700,-3.700,0.800,7.100,0.500
'0:00.885',-7.300,-12.500,-3.900,0.100,7.100,0.500
'0:00.886',-10.100,-12.500,-3.600,0.200,8.000,0.500
'0:00.887',-12.400,-11.700,-2.600,1.400,9.400,0.500
'0:00.888',-13.000,-10.400,-1.100,3.300,11.100,0.500
'0:00.889',-11.700,-9.000,0.700,5.500,12.600,0.500
'0:00.890',-9.200,-8.000,2.200,7.100,13.700,0.500
'0:00.891',-6.800,-7.500,2.900,7.900,14.500,0.500
'0:00.892',-5.600,-7.600,2.600,7.700,15.000,0.500
'0:00.893',-5.600,-7.800,1.700,7.000,15.200,0.500
'0:00.894',-6.300,-8.100,0.400,6.100,15.200,0.500
'0:00.895',-6.800,-8.400,-0.800,5.100,14.800,0.500
'0:00.896',-6.800,-9.000,-1.800,4.100,13.800,0.500
'0:00.897',-6.400,-10.100,-2.700,2.800,12.400,0.500
'0:00.898',-6.100,-11.600,-3.500,1.400,11.000,0.500
'0:00.899',-6.300,-13.500,-4.300,0.000,10.100,0.500
'0:00.900',-6.900,-15.400,-5.100,-0.900,9.900,0.500
'0:00.901',-7.300,-16.700,-5.400,-1.200,10.600,0.500
'0:00.902',-7.100,-17.400,-5.200,-0.700,11.400,0.500
'0:00.903',-6.300,-17.500,-4.600,0.100,12.100,0.500
'0:00.904',-5.200,-17.300,-3.700,1.100,12.100,0.500
'0:00.905',-4.700,-17.200,-3.000,1.900,11.700,0.500
'0:00.906',-5.000,-17.100,-2.700,2.600,11.400,0.500
'0:00.907',-5.500,-17.100,-2.900,3.300,11.400,0.500
'0:00.908',-5.400,-17.200,-3.400,3.900,11.800,0.500
'0:00.909',-4.100,-17.300,-3.900,4.200,12.200,0.500
'0:00.910',-1.600,-17.600,-4.200,3.800,12.300,0.500
'0:00.911',0.900,-18.300,-4.500,2.900,11.700,0.500
'0:00.912',2.000,-19.200,-4.700,1.500,10.900,0.500
'0:00.913',0.800,-20.200,-4.800,0.400,10.400,0.500
'0:00.914',-2.000,-20.800,-4.900,0.100,10.600,0.500
'0:00.915',-4.600,-20.800,-4.800,0.900,11.500,0.500
'0:00.916',-5.400,-20.500,-4.600,2.400,12.600,0.500
'0:00.917',-3.800,-20.300,-4.400,4.000,13.400,0.500
'0:00.918',-0.900,-20.400,-4.400,5.200,13.600,0.500
'0:00.919',1.300,-21.100,-4.700,5.700,13.300,0.500
'0:00.920',1.200,-22.000,-5.400,5.500,13.100,0.500
'0:00.921',-1.200,-22.500,-6.300,5.100,13.100,0.500
'0:00.922',-4.100,-22.400,-7.000,4.800,13.500,0.500
'0:00.923',-5.600,-21.700,-7.600,4.700,13.800,0.500
'0:00.924',-4.300,-20.700,-8.000,4.500,13.600,0.500
'0:00.925',-0.900,-20.000,-8.300,3.900,12.700,0.500
'0:00.926',2.600,-20.000,-8.700,3.000,11.600,0.500
'0:00.927',4.000,-20.500,-9.000,1.800,10.900,0.500
'0:00.928',2.300,-21.200,-8.800,0.700,10.900,0.500
'0:00.929',-1.800,-21.700,-7.800,0.300,11.900,0.500
'0:00.930',-6.100,-21.700,-6.000,0.500,13.300,0.500
'0:00.931',-8.700,-21.300,-3.600,1.300,14.400,0.500
'0:00.932',-8.600,-20.900,-1.300,2.000,14.800,0.500
'0:00.933',-6.500,-20.700,0.400,2.200,14.500,0.500
'0:00.934',-4.100,-21.000,1.000,1.700,13.700,0.500
'0:00.935',-3.100,-21.800,0.600,0.800,13.000,0.500
'0:00.936',-4.300,-22.700,-0.300,-0.100,12.800,0.500
'0:00.937',-6.900,-23.400,-1.000,-0.500,13.100,0.500
'0:00.938',-8.900,-23.500,-1.300,-0.300,13.700,0.500
'0:00.939',-8.900,-22.900,-1.200,0.300,14.100,0.500
'0:00.940',-6.400,-22.100,-1.200,1.200,14.100,0.500
'0:00.941',-2.600,-21.500,-1.500,1.700,13.800,0.500
'0:00.942',0.600,-21.400,-2.200,1.900,13.400,0.500
'0:00.943',1.500,-21.700,-3.000,1.900,13.300,0.500
'0:00.944',-0.100,-22.300,-3.300,1.700,13.400,0.500
'0:00.945',-2.900,-22.700,-3.100,1.800,13.700,0.500
'0:00.946',-4.900,-22.600,-2.200,2.000,14.000,0.500
'0:00.947',-4.600,-21.900,-1.300,2.300,14.000,0.500
'0:00.948',-2.200,-20.900,-0.800,2.400,13.800,0.500
'0:00.949',0.900,-19.900,-0.800,2.300,13.400,0.500
'0:00.950',2.800,-19.000,-1.200,1.900,13.000,0.500
'0:00.951',2.400,-18.200,-1.600,1.700,12.900,0.500
'0:00.952',0.400,-17.500,-1.700,1.800,13.000,0.500
'0:00.953',-1.700,-16.900,-1.300,2.500,13.200,0.500
'0:00.954',-2.400,-16.400,-0.800,3.400,13.600,0.500
'0:00.955',-0.900,-16.300,-0.500,4.300,13.800,0.500
'0:00.956',1.900,-16.300,-0.500,4.800,13.700,0.500
'0:00.957',4.600,-16.300,-0.800,4.900,13.200,0.500
'0:00.958',6.100,-15.900,-1.100,4.700,12.500,0.500
'0:00.959',6.200,-14.800,-1.100,4.600,11.600,0.500
'0:00.960',5.500,-13.400,-1.000,4.500,10.700,0.500
'0:00.961',4.600,-12.000,-0.800,4.600,10.100,0.500
'0:00.962',4.000,-10.900,-0.700,4.600,9.800,0.500
'0:00.963',3.400,-10.500,-0.800,4.400,9.800,0.500
'0:00.964',2.100,-10.400,-0.700,4.100,10.000,0.500
'0:00.965',0.100,-10.300,-0.400,3.800,10.200,0.500
'0:00.966',-2.400,-9.700,0.200,3.700,10.100,0.500
'0:00.967',-4.400,-8.700,1.100,3.700,9.800,0.500
'0:00.968',-5.000,-7.400,1.700,3.900,9.300,0.500
'0:00.969',-3.800,-6.400,1.900,4.000,8.900,0.500
'0:00.970',-1.200,-5.900,1.500,4.000,8.700,0.500
'0:00.971',1.800,-6.000,0.900,4.000,8.900,0.500
'0:00.972',4.200,-6.400,0.400,4.100,9.400,0.500
'0:00.973',5.100,-6.500,0.400,4.500,9.800,0.500
'0:00.974',4.300,-6.100,1.100,5.000,10.000,0.500
'0:00.975',2.400,-5.200,2.400,5.400,9.800,0.500
'0:00.976',0.300,-4.000,4.000,5.500,9.500,0.500
'0:00.977',-1.000,-2.600,5.700,5.500,9.400,0.500
'0:00.978',-1.100,-1.200,7.300,5.500,9.600,0.500
'0:00.979',-0.200,0.200,8.700,5.800,10.100,0.500
'0:00.980',0.900,1.600,10.000,6.200,10.700,0.500
'0:00.981',1.500,2.900,11.100,6.800,10.900,0.500
'0:00.982',1.100,4.000,11.800,7.200,10.500,0.500
'0:00.983',-0.100,4.800,11.800,7.100,9.500,0.500
'0:00.984',-1.600,5.100,11.000,6.500,8.200,0.500
'0:00.985',-2.600,4.900,9.500,5.500,7.000,0.500
'0:00.986',-3.000,4.300,7.600,4.400,6.000,0.500
'0:00.987',-3.000,3.400,5.700,3.700,5.400,0.500
'0:00.988',-3.400,2.500,4.300,3.400,4.800,0.500
'0:00.989',-4.400,1.800,3.400,3.800,4.000,0.500
'0:00.990',-5.600,1.500,3.200,4.500,3.100,0.500
'0:00.991',-6.300,1.800,3.200,5.200,2.400,0.500
'0:00.992',-5.800,2.500,3.300,5.700,1.800,0.500
'0:00.993',-4.000,3.600,3.000,5.500,1.600,0.500
'0:00.994',-2.000,4.500,2.300,4.600,1.600,0.500
'0:00.995',-1.100,5.000,1.100,3.200,1.600,0.500
'0:00.996',-2.300,4.800,-0.300,1.800,1.500,0.500
'0:00.997',-5.300,4.100,-1.500,1.000,1.300,0.500
'0:00.998',-9.000,3.200,-2.500,1.100,1.200,0.500
'0:00.999',-12.000,2.500,-2.900,1.900,1.200,0.500
'0:01.000',-13.500,2.100,-2.800,3.300,1.300,0.500
'0:01.001',-13.600,2.000,-2.600,4.400,1.100,0.500
'0:01.002',-13.100,2.300,-2.200,5.000,0.700,0.500
'0:01.003',-12.600,2.700,-1.900,5.000,0.300,0.500
'0:01.004',-12.400,3.300,-1.600,4.700,0.000,0.500
'0:01.005',-12.100,4.100,-1.000,4.500,0.400,0.500
'0:01.006',-11.400,5.000,-0.200,4.800,1.300,0.500
'0:01.007',-10.500,6.200,0.800,5.500,2.400,0.500
'0:01.008',-9.800,7.400,1.700,6.300,3.200,0.500
'0:01.009',-9.900,8.500,2.300,6.900,3.300,0.500
'0:01.010',-10.900,9.100,2.400,6.800,2.600,0.500
'0:01.011',-12.400,9.200,1.900,6.000,1.500,0.500
'0:01.012',-13.800,8.700,1.000,4.700,0.200,0.500
'0:01.013',-14.700,7.400,-0.500,3.300,-0.900,0.500
'0:01.014',-15.300,5.700,-2.200,2.000,-1.600,0.500
'0:01.015',-15.800,3.800,-4.000,1.200,-2.200,0.500
'0:01.016',-16.400,2.200,-5.500,0.900,-2.900,0.500
'0:01.017',-16.900,1.200,-6.400,0.700,-3.600,0.500
'0:01.018',-16.700,0.900,-6.200,0.600,-4.500,0.500
'0:01.019',-15.500,1.200,-5.100,0.100,-5.300,0.500
'0:01.020',-13.500,1.700,-3.400,-0.700,-6.100,0.500
'0:01.021',-11.300,2.000,-1.600,-1.700,-6.600,0.500
'0:01.022',-10.100,2.000,-0.300,-2.300,-6.800,0.500
'0:01.023',-10.500,1.600,0.100,-2.400,-6.800,0.500
'0:01.024',-12.400,1.200,-0.300,-1.900,-6.500,0.500
'0:01.025',-15.000,1.000,-1.300,-0.900,-5.900,0.500
'0:01.026',-16.900,1.100,-2.100,0.200,-5.000,0.500
'0:01.027',-16.900,1.600,-2.300,1.000,-3.800,0.500
'0:01.028',-14.900,2.300,-1.600,1.300,-2.600,0.500
'0:01.029',-11.500,3.200,-0.400,1.100,-1.600,0.500
'0:01.030',-8.200,4.100,1.000,0.600,-1.000,0.500
'0:01.031',-6.600,4.500,1.900,-0.100,-1.100,0.500
'0:01.032',-7.300,4.500,2.100,-0.900,-1.900,0.500
'0:01.033',-10.200,4.000,1.800,-1.700,-3.100,0.500
'0:01.034',-14.000,3.000,1.200,-2.500,-4.500,0.500
'0:01.035',-17.100,1.900,0.500,-3.200,-5.700,0.500
'0:01.036',-18.600,0.900,-0.200,-3.600,-6.500,0.500
'0:01.037',-18.300,0.100,-1.200,-3.700,-6.600,0.500
'0:01.038',-17.000,-0.300,-2.500,-3.500,-6.100,0.500
'0:01.039',-15.700,-0.400,-3.800,-2.800,-5.200,0.500
'0:01.040',-15.000,-0.300,-4.700,-1.900,-4.200,0.500
'0:01.041',-15.000,0.300,-4.700,-1.000,-3.100,0.500
'0:01.042',-15.100,1.100,-3.600,-0.200,-2.400,0.500
'0:01.043',-15.000,2.100,-1.900,0.000,-2.000,0.500
'0:01.044',-14.300,3.100,-0.500,-0.300,-2.000,0.500
'0:01.045',-13.500,3.600,0.100,-1.000,-2.100,0.500
'0:01.046',-12.900,3.700,-0.400,-1.700,-2.100,0.500
'0:01.047',-12.800,3.500,-1.400,-2.000,-1.600,0.500
'0:01.048',-13.000,3.400,-2.000,-1.800,-0.800,0.500
'0:01.049',-13.000,3.700,-1.800,-1.100,0.300,0.500
'0:01.050',-12.300,4.400,-0.500,-0.300,1.500,0.500
'0:01.051',-11.000,5.500,1.300,0.100,2.400,0.500
'0:01.052',-9.700,6.400,2.900,0.100,2.700,0.500
'0:01.053',-8.900,6.800,3.700,-0.200,2.600,0.500
'0:01.054',-9.000,6.700,3.700,-0.500,1.900,0.500
'0:01.055',-10.100,6.300,3.100,-0.700,1.000,0.500
'0:01.056',-11.500,5.900,2.500,-0.500,0.200,0.500
'0:01.057',-12.600,5.900,2.300,-0.400,-0.300,0.500
'0:01.058',-13.100,6.300,2.700,-0.300,-0.300,0.500
'0:01.059',-13.100,6.900,3.600,-0.500,0.100,0.500
'0:01.060',-12.900,7.500,4.800,-0.800,0.700,0.500
'0:01.061',-12.400,7.900,5.900,-0.900,1.100,0.500
'0:01.062',-11.600,8.000,6.600,-0.600,1.200,0.500
'0:01.063',-10.500,7.800,6.700,0.000,0.700,0.500
'0:01.064',-9.300,7.400,6.100,0.700,0.000,0.500
'0:01.065',-8.500,6.900,5.100,1.100,-0.700,0.500
'0:01.066',-8.800,6.500,4.100,1.000,-1.200,0.500
'0:01.067',-10.100,6.100,3.600,0.400,-1.200,0.500
'0:01.068',-11.700,5.800,3.700,-0.200,-0.900,0.500
'0:01.069',-12.600,5.700,4.300,-0.400,-0.400,0.500
'0:01.070',-12.100,5.700,5.100,-0.100,0.200,0.500
'0:01.071',-10.400,5.900,5.700,0.700,0.600,0.500
'0:01.072',-8.800,6.100,5.900,1.700,1.000,0.500
'0:01.073',-8.600,6.400,5.800,2.400,1.400,0.500
'0:01.074',-10.200,6.800,5.700,2.400,1.700,0.500
'0:01.075',-12.600,7.100,5.800,1.700,2.000,0.500
'0:01.076',-14.200,7.400,6.100,0.700,2.000,0.500
'0:01.077',-13.700,7.500,6.500,-0.300,1.800,0.500
'0:01.078',-11.100,7.300,6.800,-0.900,1.300,0.500
'0:01.079',-7.900,7.000,7.000,-1.100,0.700,0.500
'0:01.080',-6.000,6.700,7.300,-0.900,0.300,0.500
'0:01.081',-6.400,6.600,7.900,-0.700,0.300,0.500
'0:01.082',-9.000,6.700,9.000,-0.500,0.900,0.500
'0:01.083',-12.200,7.100,10.500,-0.500,1.800,0.500
'0:01.084',-14.300,7.500,11.800,-0.300,2.800,0.500
'0:01.085',-14.500,7.800,12.500,0.000,3.300,0.500
'0:01.086',-13.300,7.800,12.000,0.300,3.000,0.500
'0:01.087',-12.000,7.600,10.600,0.200,1.900,0.500
'0:01.088',-12.000,7.000,8.600,-0.300,0.500,0.500
'0:01.089',-13.500,6.300,6.700,-1.200,-0.900,0.500
'0:01.090',-15.800,5.500,5.400,-2.300,-1.700,0.500
'0:01.091',-17.500,4.800,5.000,-3.100,-1.900,0.500
'0:01.092',-17.400,4.200,5.200,-3.400,-1.700,0.500
'0:01.093',-15.200,4.000,5.700,-3.300,-1.800,0.500
'0:01.094',-12.000,4.000,6.000,-3.000,-2.400,0.500
'0:01.095',-9.900,4.300,6.100,-3.000,-3.600,0.500
'0:01.096',-10.100,4.400,6.100,-3.400,-5.000,0.500
'0:01.097',-13.000,4.200,6.100,-3.900,-6.100,0.500
'0:01.098',-17.100,3.700,6.200,-4.400,-6.400,0.500
'0:01.099',-20.300,3.000,6.400,-4.500,-6.000,0.500
'0:01.100',-20.400,2.400,6.600,-4.200,-5.100,0.500
'0:01.101',-17.100,2.300,6.700,-3.700,-4.100,0.500
'0:01.102',-11.700,2.700,6.700,-3.200,-3.200,0.500
'0:01.103',-6.600,3.500,6.700,-2.800,-2.200,0.500
'0:01.104',-3.400,4.500,6.900,-2.300,-1.100,0.500
'0:01.105',-2.500,5.400,7.300,-1.600,0.400,0.500
'0:01.106',-2.200,6.200,7.900,-0.500,2.600,0.500
'0:01.107',0.000,7.300,8.900,1.100,5.500,0.500
'0:01.108',6.100,9.000,10.600,3.300,9.300,0.500
'0:01.109',16.000,11.700,13.400,6.200,14.100,0.500
'0:01.110',28.200,15.200,17.600,9.600,19.700,0.500
'0:01.111',40.501,19.300,22.900,13.400,25.600,0.500
'0:01.112',51.001,23.400,28.200,17.100,31.000,0.500
'0:01.113',59.401,27.000,32.400,20.000,34.701,0.500
'0:01.114',66.201,29.600,34.201,21.700,36.201,0.500
'0:01.115',71.801,30.800,33.101,21.700,35.101,0.500
'0:01.116',75.901,30.600,29.700,20.300,32.100,0.500
'0:01.117',77.601,29.100,25.100,17.800,28.000,0.500
'0:01.118',75.301,26.400,20.600,14.900,23.600,0.500
'0:01.119',68.401,23.200,16.800,11.900,19.400,0.500
'0:01.120',57.501,19.800,13.600,9.100,15.300,0.500
'0:01.121',44.001,16.600,10.500,6.500,10.900,0.500
'0:01.122',29.700,13.700,6.700,3.700,5.700,0.500
'0:01.123',16.000,11.100,1.900,0.600,-0.300,0.500
'0:01.124',3.200,8.400,-3.600,-2.800,-6.700,0.500
'0:01.125',-9.200,5.700,-8.900,-6.500,-12.600,0.500
'0:01.126',-21.500,3.000,-13.100,-9.900,-17.100,0.500
'0:01.127',-33.501,0.600,-15.600,-12.500,-19.600,0.500
'0:01.128',-44.401,-1.300,-16.300,-13.700,-20.100,0.500
'0:01.129',-53.001,-2.400,-15.400,-13.300,-19.000,0.500
'0:01.130',-58.201,-2.600,-13.700,-11.700,-17.300,0.500
'0:01.131',-59.901,-2.000,-11.700,-9.300,-15.500,0.500
'0:01.132',-58.101,-0.900,-10.000,-6.900,-14.200,0.500
'0:01.133',-53.701,0.700,-8.700,-4.900,-13.000,0.500
'0:01.134',-47.301,2.500,-7.700,-3.500,-11.900,0.500
'0:01.135',-40.001,4.000,-7.000,-2.700,-10.600,0.500
'0:01.136',-32.700,5.000,-6.200,-2.300,-9.100,0.500
'0:01.137',-26.200,5.300,-5.400,-2.200,-7.900,0.500
'0:01.138',-21.500,4.900,-4.500,-2.500,-7.100,0.500
'0:01.139',-18.600,4.300,-4.000,-2.900,-6.700,0.500
'0:01.140',-17.200,3.700,-3.700,-3.400,-6.600,0.500
'0:01.141',-16.500,3.400,-3.700,-3.600,-6.400,0.500
'0:01.142',-15.600,3.500,-3.700,-3.500,-6.000,0.500
'0:01.143',-14.100,4.000,-3.600,-3.100,-5.500,0.500
'0:01.144',-11.800,4.600,-3.300,-2.600,-5.200,0.500
'0:01.145',-9.200,5.100,-2.700,-2.500,-5.200,0.500
'0:01.146',-6.900,5.500,-2.000,-2.700,-5.500,0.500
'0:01.147',-5.200,5.600,-1.300,-3.300,-6.100,0.500
'0:01.148',-4.300,5.400,-0.800,-3.800,-6.600,0.500
'0:01.149',-4.100,5.100,-0.600,-4.000,-6.800,0.500
'0:01.150',-4.400,4.700,-0.800,-3.900,-6.900,0.500
'0:01.151',-5.100,4.400,-1.300,-3.600,-6.800,0.500
'0:01.152',-6.000,4.300,-2.000,-3.400,-6.600,0.500
'0:01.153',-7.000,4.400,-2.700,-3.500,-6.300,0.500
'0:01.154',-7.900,4.600,-3.100,-3.700,-5.800,0.500
'0:01.155',-8.700,4.700,-3.100,-3.900,-5.300,0.500
'0:01.156',-9.500,4.600,-2.500,-4.000,-4.800,0.500
'0:01.157',-10.400,4.500,-1.400,-3.900,-4.500,0.500
'0:01.158',-11.400,4.500,0.000,-3.600,-4.400,0.500
'0:01.159',-12.400,4.800,1.600,-3.100,-4.600,0.500
'0:01.160',-13.000,5.500,3.000,-2.600,-4.800,0.500
'0:01.161',-12.700,6.200,4.100,-2.100,-4.900,0.500
'0:01.162',-11.600,6.800,4.700,-1.800,-4.900,0.500
'0:01.163',-9.800,7.100,4.600,-1.600,-4.800,0.500
'0:01.164',-8.200,7.000,3.900,-1.500,-4.900,0.500
'0:01.165',-7.200,6.600,2.800,-1.500,-5.100,0.500
'0:01.166',-7.200,6.200,1.700,-1.500,-5.400,0.500
'0:01.167',-7.900,5.900,0.800,-1.800,-5.600,0.500
'0:01.168',-8.900,5.600,0.400,-2.300,-5.600,0.500
'0:01.169',-9.600,5.400,0.500,-3.000,-5.300,0.500
'0:01.170',-9.700,5.100,0.700,-3.900,-5.000,0.500
'0:01.171',-9.300,4.800,0.900,-4.700,-4.900,0.500
'0:01.172',-8.700,4.500,0.900,-5.200,-5.300,0.500
'0:01.173',-8.200,4.000,0.700,-5.400,-6.100,0.500
'0:01.174',-7.900,3.400,0.400,-5.200,-6.900,0.500
'0:01.175',-7.800,2.800,0.200,-4.900,-7.500,0.500
'0:01.176',-7.800,2.400,0.300,-4.700,-7.500,0.500
'0:01.177',-8.000,2.300,0.600,-4.600,-7.200,0.500
'0:01.178',-8.600,2.300,0.900,-4.600,-7.000,0.500
'0:01.179',-9.600,2.300,0.800,-4.800,-7.200,0.500
'0:01.180',-10.400,2.000,0.200,-5.200,-7.900,0.500
'0:01.181',-10.400,1.500,-0.800,-5.800,-8.900,0.500
'0:01.182',-9.100,0.800,-1.900,-6.500,-9.700,0.500
'0:01.183',-6.600,0.100,-2.600,-7.100,-9.800,0.500
'0:01.184',-3.900,0.000,-2.600,-7.300,-9.100,0.500
'0:01.185',-2.200,0.400,-1.800,-6.800,-7.700,0.500
'0:01.186',-2.500,1.400,-0.500,-5.700,-6.200,0.500
'0:01.187',-4.700,2.700,0.800,-4.500,-5.100,0.500
'0:01.188',-7.500,3.800,1.700,-3.400,-4.700,0.500
'0:01.189',-9.400,4.500,2.000,-3.000,-5.100,0.500
'0:01.190',-9.600,4.500,1.700,-3.200,-6.000,0.500
'0:01.191',-8.300,4.100,1.100,-3.700,-6.900,0.500
'0:01.192',-6.600,3.300,0.600,-4.100,-7.400,0.500
'0:01.193',-5.500,2.600,0.400,-4.200,-7.400,0.500
'0:01.194',-5.600,2.200,0.500,-3.700,-7.000,0.500
'0:01.195',-6.200,2.000,0.800,-2.800,-6.500,0.500
'0:01.196',-6.600,2.000,0.900,-1.800,-6.300,0.500
'0:01.197',-6.300,2.000,0.500,-1.000,-6.500,0.500
'0:01.198',-5.600,1.900,-0.500,-0.400,-7.000,0.500
'0:01.199',-5.100,1.500,-2.100,-0.300,-7.700,0.500
'0:01.200',-5.300,1.000,-4.000,-0.500,-8.100,0.500
'0:01.201',-5.700,0.500,-5.900,-0.900,-8.000,0.500
'0:01.202',-5.800,0.000,-7.400,-1.500,-7.500,0.500
'0:01.203',-5.000,-0.200,-8.200,-2.100,-6.700,0.500
'0:01.204',-3.300,0.100,-8.200,-2.400,-6.000,0.500
'0:01.205',-1.800,0.700,-7.600,-2.500,-5.500,0.500
'0:01.206',-1.300,1.800,-6.600,-2.200,-5.200,0.500
'0:01.207',-2.300,3.200,-5.300,-1.800,-4.900,0.500
'0:01.208',-4.200,4.500,-4.100,-1.400,-4.600,0.500
'0:01.209',-6.200,5.600,-3.400,-1.100,-4.300,0.500
'0:01.210',-7.500,6.200,-3.500,-1.100,-4.000,0.500
'0:01.211',-8.200,6.400,-4.400,-1.200,-3.900,0.500
'0:01.212',-8.600,6.600,-5.700,-1.300,-3.900,0.500
'0:01.213',-9.300,7.000,-6.800,-1.200,-4.000,0.500
'0:01.214',-9.900,7.600,-7.000,-0.700,-3.900,0.500
'0:01.215',-10.000,8.400,-6.000,-0.100,-3.600,0.500
'0:01.216',-8.900,8.900,-4.400,0.300,-3.200,0.500
'0:01.217',-6.600,8.800,-2.800,0.300,-3.100,0.500
'0:01.218',-3.600,8.100,-2.100,-0.500,-3.700,0.500
'0:01.219',-1.200,6.800,-2.600,-1.800,-5.000,0.500
'0:01.220',-0.300,5.400,-4.100,-3.200,-6.700,0.500
'0:01.221',-1.100,4.200,-5.900,-4.400,-8.200,0.500
'0:01.222',-3.200,3.300,-7.200,-5.000,-9.000,0.500
'0:01.223',-5.800,2.800,-7.600,-5.100,-8.800,0.500
'0:01.224',-8.000,2.400,-7.100,-4.900,-7.700,0.500
'0:01.225',-9.200,2.200,-6.200,-4.900,-6.200,0.500
'0:01.226',-9.200,2.000,-5.200,-5.000,-4.900,0.500
'0:01.227',-7.900,2.000,-4.300,-5.100,-4.100,0.500
'0:01.228',-5.900,2.100,-3.800,-5.100,-4.100,0.500
'0:01.229',-4.000,2.200,-3.500,-4.600,-4.400,0.500
'0:01.230',-3.100,2.400,-3.400,-3.900,-4.700,0.500
'0:01.231',-3.600,2.600,-3.500,-3.000,-4.800,0.500
'0:01.232',-5.400,2.800,-3.800,-2.400,-4.500,0.500
'0:01.233',-7.700,3.100,-4.000,-2.100,-4.000,0.500
'0:01.234',-9.400,3.300,-4.200,-2.000,-3.700,0.500
'0:01.235',-9.800,3.500,-4.300,-1.800,-3.700,0.500
'0:01.236',-9.000,3.500,-4.400,-1.400,-3.900,0.500
'0:01.237',-7.700,3.300,-4.500,-0.700,-4.100,0.500
'0:01.238',-6.600,3.100,-4.800,-0.100,-4.000,0.500
'0:01.239',-5.800,3.100,-5.300,0.100,-3.600,0.500
'0:01.240',-5.200,3.400,-5.700,-0.200,-3.000,0.500
'0:01.241',-4.500,3.800,-6.100,-0.900,-2.600,0.500
'0:01.242',-3.700,4.000,-6.200,-1.800,-2.500,0.500
'0:01.243',-3.600,4.000,-6.200,-2.400,-2.800,0.500
'0:01.244',-4.500,3.500,-6.300,-2.900,-3.200,0.500
'0:01.245',-6.500,2.900,-6.500,-3.100,-3.200,0.500
'0:01.246',-8.500,2.400,-6.700,-3.400,-2.700,0.500
'0:01.247',-9.500,2.300,-6.800,-3.700,-1.800,0.500
'0:01.248',-8.700,2.700,-6.600,-3.900,-1.000,0.500
'0:01.249',-6.500,3.400,-6.000,-4.000,-0.700,0.500
'0:01.250',-4.200,3.900,-5.200,-3.800,-1.100,0.500
'0:01.251',-3.100,4.000,-4.500,-3.500,-1.800,0.500
'0:01.252',-3.700,3.700,-4.000,-3.200,-2.500,0.500
'0:01.253',-5.200,3.300,-3.700,-3.000,-2.500,0.500
'0:01.254',-6.500,3.100,-3.400,-2.700,-1.900,0.500
'0:01.255',-6.500,3.300,-2.800,-2.200,-0.900,0.500
'0:01.256',-5.100,4.000,-1.900,-1.300,0.000,0.500
'0:01.257',-3.000,4.700,-0.800,-0.100,0.200,0.500
'0:01.258',-1.300,5.100,0.100,1.000,-0.300,0.500
'0:01.259',-0.800,5.200,0.700,1.700,-1.100,0.500
'0:01.260',-1.700,4.900,0.800,1.700,-1.700,0.500
'0:01.261',-3.600,4.600,0.600,1.300,-1.800,0.500
'0:01.262',-5.800,4.500,0.500,0.700,-1.400,0.500
'0:01.263',-7.500,4.700,0.400,0.400,-0.800,0.500
'0:01.264',-8.000,5.100,0.400,0.500,-0.300,0.500
'0:01.265',-7.100,5.300,0.400,0.900,-0.200,0.500
'0:01.266',-5.300,5.400,0.100,1.300,-0.400,0.500
'0:01.267',-3.400,5.400,-0.400,1.500,-0.700,0.500
'0:01.268',-2.700,5.300,-1.000,1.500,-0.800,0.500
'0:01.269',-3.900,5.400,-1.400,1.500,-0.700,0.500
'0:01.270',-6.500,5.500,-1.500,1.400,-0.500,0.500
'0:01.271',-9.700,5.600,-1.300,1.300,-0.500,0.500
'0:01.272',-11.900,5.500,-0.900,0.900,-0.900,0.500
'0:01.273',-12.300,5.200,-0.700,0.300,-1.600,0.500
'0:01.274',-11.100,4.800,-0.800,-0.300,-2.400,0.500
'0:01.275',-9.300,4.400,-1.300,-0.500,-2.900,0.500
'0:01.276',-8.100,4.300,-2.100,0.100,-2.700,0.500
'0:01.277',-8.100,4.300,-2.900,1.300,-1.900,0.500
'0:01.278',-9.100,4.400,-3.400,2.900,-0.500,0.500
'0:01.279',-10.300,4.700,-3.500,4.200,1.100,0.500
'0:01.280',-11.000,5.100,-3.100,4.700,2.300,0.500
'0:01.281',-10.600,5.600,-2.600,4.400,2.800,0.500
'0:01.282',-9.600,6.200,-2.200,3.600,2.500,0.500
'0:01.283',-8.500,6.600,-2.200,2.800,1.800,0.500
'0:01.284',-8.200,6.600,-2.500,2.200,1.200,0.500
'0:01.285',-8.900,6.400,-3.000,2.000,0.900,0.500
'0:01.286',-10.500,5.900,-3.300,2.300,1.200,0.500
'0:01.287',-12.400,5.800,-3.300,2.800,1.800,0.500
'0:01.288',-13.500,6.000,-3.000,3.500,2.300,0.500
'0:01.289',-13.200,6.500,-2.700,4.000,2.300,0.500
'0:01.290',-11.400,7.100,-2.500,4.400,1.900,0.500
'0:01.291',-8.800,7.200,-2.600,4.500,1.200,0.500
'0:01.292',-6.600,6.800,-2.700,4.200,0.700,0.500
'0:01.293',-5.800,6.000,-2.700,3.700,0.700,0.500
'0:01.294',-6.300,5.100,-2.600,3.100,1.000,0.500
'0:01.295',-7.500,4.600,-2.300,2.800,1.300,0.500
'0:01.296',-8.200,4.500,-2.000,2.700,1.500,0.500
'0:01.297',-7.800,4.600,-1.900,2.800,1.400,0.500
'0:01.298',-6.900,4.700,-1.900,3.000,1.100,0.500
'0:01.299',-6.800,4.500,-1.900,3.200,1.200,0.500
'0:01.300',-8.300,4.400,-1.900,3.300,1.800,0.500
'0:01.301',-11.300,4.400,-1.800,3.400,2.800,0.500
'0:01.302',-14.300,4.700,-1.700,3.400,3.900,0.500
'0:01.303',-15.700,5.400,-1.900,3.100,4.600,0.500
'0:01.304',-14.700,6.000,-2.400,2.600,4.400,0.500
'0:01.305',-11.800,6.300,-2.900,1.800,3.300,0.500
'0:01.306',-8.800,6.200,-3.200,0.900,1.800,0.500
'0:01.307',-7.100,5.700,-3.200,0.100,0.500,0.500
'0:01.308',-7.100,5.000,-3.000,-0.200,-0.200,0.500
'0:01.309',-7.900,4.400,-2.900,-0.100,-0.200,0.500
'0:01.310',-8.200,3.800,-3.100,0.300,0.200,0.500
'0:01.311',-7.400,3.400,-3.700,0.800,0.500,0.500
'0:01.312',-6.200,3.100,-4.600,1.100,0.100,0.500
'0:01.313',-6.000,2.800,-5.400,1.100,-0.900,0.500
'0:01.314',-7.900,2.600,-5.800,0.700,-2.300,0.500
'0:01.315',-11.500,2.500,-5.500,0.300,-3.300,0.500
'0:01.316',-15.600,2.600,-4.500,0.000,-3.500,0.500
'0:01.317',-18.400,2.900,-3.300,0.000,-2.600,0.500
'0:01.318',-19.000,3.600,-1.900,0.600,-0.800,0.500
'0:01.319',-17.400,4.700,-0.700,1.600,1.400,0.500
'0:01.320',-14.600,6.100,0.200,2.900,3.500,0.500
'0:01.321',-11.900,7.700,1.000,4.200,5.100,0.500
'0:01.322',-10.000,9.100,1.700,5.100,6.000,0.500
'0:01.323',-9.200,10.200,2.300,5.100,5.900,0.500
'0:01.324',-9.700,10.800,2.800,4.400,5.100,0.500
'0:01.325',-11.100,10.900,2.900,2.800,3.600,0.500
'0:01.326',-13.100,10.200,2.500,0.800,1.700,0.500
'0:01.327',-15.000,8.800,1.600,-1.200,-0.300,0.500
'0:01.328',-16.400,6.800,0.400,-3.000,-2.000,0.500
'0:01.329',-17.000,4.600,-0.800,-4.200,-3.200,0.500
'0:01.330',-17.000,2.700,-1.500,-4.600,-3.700,0.500
'0:01.331',-16.500,1.600,-1.600,-4.300,-3.900,0.500
'0:01.332',-16.100,1.400,-1.400,-3.600,-4.200,0.500
'0:01.333',-15.600,1.900,-1.200,-2.800,-4.700,0.500
'0:01.334',-14.600,2.300,-1.600,-2.500,-5.300,0.500
'0:01.335',-12.700,2.300,-2.600,-2.600,-5.900,0.500
'0:01.336',-10.000,1.700,-3.800,-3.000,-6.100,0.500
'0:01.337',-7.000,0.900,-4.800,-3.300,-5.800,0.500
'0:01.338',-4.800,0.300,-4.900,-3.100,-5.200,0.500
'0:01.339',-4.100,0.400,-4.100,-2.400,-4.400,0.500
'0:01.340',-4.800,1.000,-2.800,-1.300,-3.900,0.500
'0:01.341',-6.300,1.700,-1.500,-0.500,-3.500,0.500
'0:01.342',-7.400,2.100,-0.900,-0.400,-3.300,0.500
'0:01.343',-7.800,1.900,-1.200,-1.300,-3.100,0.500
'0:01.344',-7.600,1.200,-2.000,-2.900,-2.900,0.500
'0:01.345',-7.200,0.500,-2.800,-4.700,-2.700,0.500
'0:01.346',-7.400,-0.200,-3.400,-6.100,-2.600,0.500
'0:01.347',-8.400,-0.500,-3.500,-6.400,-2.500,0.500
'0:01.348',-9.600,-0.500,-3.400,-5.600,-2.400,0.500
'0:01.349',-10.400,-0.100,-3.500,-4.000,-2.300,0.500
'0:01.350',-10.200,0.600,-3.900,-2.200,-2.300,0.500
'0:01.351',-8.800,1.400,-4.800,-0.700,-2.700,0.500
'0:01.352',-6.800,2.100,-5.900,0.100,-3.600,0.500
'0:01.353',-4.800,2.600,-6.800,0.200,-4.800,0.500
'0:01.354',-3.400,2.600,-7.500,0.000,-5.800,0.500
'0:01.355',-3.200,2.100,-7.700,-0.200,-6.200,0.500
'0:01.356',-4.200,1.500,-7.600,0.000,-6.000,0.500
'0:01.357',-6.100,0.900,-7.300,0.200,-5.200,0.500
'0:01.358',-8.500,0.700,-6.800,0.200,-4.500,0.500
'0:01.359',-10.900,0.700,-6.200,-0.400,-4.100,0.500
'0:01.360',-12.900,0.700,-5.500,-1.500,-4.300,0.500
'0:01.361',-13.800,0.600,-4.800,-2.900,-4.700,0.500
'0:01.362',-13.400,0.300,-4.100,-4.100,-5.100,0.500
'0:01.363',-11.900,0.100,-3.700,-4.700,-4.900,0.500
'0:01.364',-9.700,0.200,-3.600,-4.700,-4.300,0.500
'0:01.365',-7.600,0.700,-3.700,-4.700,-3.700,0.500
'0:01.366',-6.500,1.300,-4.000,-4.900,-3.200,0.500
'0:01.367',-6.600,1.900,-4.100,-5.700,-3.200,0.500
'0:01.368',-7.800,2.200,-3.900,-6.700,-3.500,0.500
'0:01.369',-9.100,2.200,-3.600,-7.400,-3.700,0.500
'0:01.370',-9.700,2.200,-3.300,-7.300,-3.700,0.500
'0:01.371',-9.300,2.200,-3.100,-6.400,-3.200,0.500
'0:01.372',-8.000,2.600,-3.100,-4.900,-2.600,0.500
'0:01.373',-6.600,3.300,-3.100,-3.600,-2.100,0.500
'0:01.374',-5.700,3.900,-2.900,-3.000,-2.000,0.500
'0:01.375',-5.700,4.400,-2.400,-3.200,-2.400,0.500
'0:01.376',-6.300,4.500,-1.400,-4.100,-3.100,0.500
'0:01.377',-7.300,4.300,-0.400,-5.200,-3.900,0.500
'0:01.378',-8.600,4.000,0.300,-6.200,-4.700,0.500
'0:01.379',-9.800,3.500,0.400,-6.800,-5.400,0.500
'0:01.380',-10.800,2.900,-0.300,-7.200,-5.900,0.500
'0:01.381',-11.200,2.400,-1.600,-7.300,-6.100,0.500
'0:01.382',-10.600,1.800,-3.100,-7.200,-6.100,0.500
'0:01.383',-9.100,1.400,-4.500,-6.800,-5.700,0.500
'0:01.384',-6.800,1.300,-5.500,-6.100,-5.100,0.500
'0:01.385',-4.500,1.300,-6.000,-5.000,-4.400,0.500
'0:01.386',-2.600,1.400,-6.100,-4.000,-4.100,0.500
'0:01.387',-1.400,1.300,-6.000,-3.200,-4.200,0.500
'0:01.388',-0.700,1.100,-5.600,-2.800,-4.600,0.500
'0:01.389',-0.400,0.800,-5.200,-2.800,-5.000,0.500
'0:01.390',-0.700,0.600,-4.500,-2.900,-5.100,0.500
'0:01.391',-1.800,0.700,-3.600,-2.900,-4.600,0.500
'0:01.392',-3.700,1.100,-2.500,-2.800,-3.800,0.500
'0:01.393',-6.000,1.500,-1.500,-2.600,-3.000,0.500
'0:01.394',-7.700,1.800,-0.900,-2.400,-2.500,0.500
'0:01.395',-7.900,1.800,-0.800,-2.200,-2.500,0.500
'0:01.396',-6.400,1.800,-1.300,-1.900,-3.000,0.500
'0:01.397',-4.300,1.800,-2.000,-1.400,-3.600,0.500
'0:01.398',-2.800,2.100,-2.600,-0.700,-3.900,0.500
'0:01.399',-3.000,2.600,-2.900,0.100,-3.900,0.500
'0:01.400',-5.000,3.100,-2.900,0.700,-3.500,0.500
'0:01.401',-7.800,3.300,-2.600,0.900,-2.900,0.500
'0:01.402',-9.900,3.400,-2.100,0.800,-2.300,0.500
'0:01.403',-10.300,3.500,-1.600,0.200,-1.900,0.500
'0:01.404',-8.900,3.700,-1.000,-0.400,-1.600,0.500
'0:01.405',-6.600,4.100,-0.300,-1.100,-1.600,0.500
'0:01.406',-4.500,4.500,0.200,-1.500,-1.800,0.500
'0:01.407',-3.300,4.600,0.500,-1.500,-2.200,0.500
'0:01.408',-3.100,4.400,0.500,-0.900,-2.900,0.500
'0:01.409',-3.700,4.100,0.300,0.100,-3.500,0.500
'0:01.410',-4.500,4.100,0.100,1.400,-4.000,0.500
'0:01.411',-4.800,4.600,0.100,2.800,-4.200,0.500
'0:01.412',-4.400,5.600,0.300,3.900,-4.100,0.500
'0:01.413',-3.200,7.000,0.600,4.900,-3.700,0.500
'0:01.414',-1.800,8.500,1.100,5.800,-3.100,0.500
'0:01.415',-0.400,9.900,1.700,7.100,-2.300,0.500
'0:01.416',0.400,11.400,2.600,8.900,-1.200,0.500
'0:01.417',0.500,13.400,4.000,11.200,0.500,0.500
'0:01.418',0.100,15.900,5.800,13.800,2.700,0.500
'0:01.419',-0.300,18.800,7.800,16.200,5.500,0.500
'0:01.420',-0.400,21.600,9.900,18.200,8.500,0.500
'0:01.421',-0.200,23.900,11.900,19.800,11.300,0.500
'0:01.422',0.000,25.100,13.600,20.900,13.700,0.500
'0:01.423',0.000,25.200,15.200,21.800,15.400,0.500
'0:01.424',-0.400,24.200,16.700,22.500,16.800,0.500
'0:01.425',-0.900,22.500,18.000,22.800,17.900,0.500
'0:01.426',-1.100,20.400,18.600,22.800,19.100,0.500
'0:01.427',-0.900,17.800,18.400,22.500,20.500,0.500
'0:01.428',-0.300,14.800,17.400,21.900,22.000,0.500
'0:01.429',0.200,11.300,15.800,21.500,23.500,0.500
'0:01.430',0.200,7.100,14.100,21.300,25.200,0.500
'0:01.431',-0.300,2.500,12.900,21.300,27.000,0.500
'0:01.432',-1.300,-2.500,12.300,21.200,29.100,0.500
'0:01.433',-2.200,-7.600,11.900,20.900,31.500,0.500
'0:01.434',-2.800,-12.300,11.600,20.100,33.901,0.500
'0:01.435',-2.900,-16.500,10.800,18.900,36.301,0.500
'0:01.436',-2.700,-20.200,9.600,17.400,38.301,0.500
'0:01.437',-2.500,-23.700,8.100,15.800,39.901,0.500
'0:01.438',-2.600,-27.600,6.200,14.200,40.801,0.500
'0:01.439',-2.700,-32.000,4.000,12.200,41.001,0.500
'0:01.440',-2.900,-37.201,1.400,9.800,40.101,0.500
'0:01.441',-3.000,-42.701,-1.700,6.700,38.301,0.500
'0:01.442',-3.100,-48.101,-5.300,3.300,35.601,0.500
'0:01.443',-3.200,-52.701,-8.900,-0.100,32.500,0.500
'0:01.444',-3.600,-56.101,-12.100,-2.900,29.600,0.500
'0:01.445',-4.300,-58.201,-14.400,-4.700,27.600,0.500
'0:01.446',-5.100,-59.201,-15.600,-5.500,26.800,0.500
'0:01.447',-5.800,-59.501,-15.800,-5.400,27.000,0.500
'0:01.448',-6.100,-59.601,-15.500,-4.900,27.600,0.500
'0:01.449',-6.100,-59.501,-15.100,-4.300,27.900,0.500
'0:01.450',-6.000,-59.101,-15.100,-4.000,27.100,0.500
'0:01.451',-5.900,-58.101,-15.400,-4.200,25.000,0.500
'0:01.452',-5.900,-56.301,-16.100,-5.000,21.600,0.500
'0:01.453',-5.900,-53.701,-16.900,-6.400,17.100,0.500
'0:01.454',-5.500,-50.201,-17.700,-8.300,12.000,0.500
'0:01.455',-4.500,-46.201,-18.500,-10.800,6.500,0.500
'0:01.456',-3.200,-41.901,-19.400,-13.600,0.700,0.500
'0:01.457',-2.200,-37.201,-20.400,-16.600,-5.300,0.500
'0:01.458',-2.200,-32.500,-21.400,-19.700,-11.100,0.500
'0:01.459',-3.800,-27.800,-22.200,-22.600,-16.500,0.500
'0:01.460',-6.500,-23.200,-22.600,-24.900,-21.000,0.500
'0:01.461',-9.600,-19.100,-22.500,-26.400,-24.400,0.500
'0:01.462',-11.600,-15.700,-21.900,-27.000,-26.500,0.500
'0:01.463',-11.700,-12.900,-20.900,-26.800,-27.400,0.500
'0:01.464',-9.700,-10.700,-19.700,-26.100,-27.600,0.500
'0:01.465',-6.600,-9.100,-18.500,-25.100,-27.300,0.500
'0:01.466',-3.800,-7.800,-17.100,-24.100,-27.000,0.500
'0:01.467',-2.400,-6.600,-15.700,-23.100,-26.700,0.500
'0:01.468',-2.900,-5.400,-14.300,-22.400,-26.600,0.500
'0:01.469',-4.500,-4.200,-13.000,-22.000,-26.700,0.500
'0:01.470',-6.100,-3.200,-12.000,-22.000,-27.000,0.500
'0:01.471',-6.800,-2.500,-11.700,-22.500,-27.500,0.500
'0:01.472',-6.600,-2.200,-11.900,-23.300,-27.900,0.500
'0:01.473',-6.100,-2.200,-12.600,-24.100,-28.200,0.500
'0:01.474',-6.100,-2.400,-13.200,-24.400,-28.300,0.500
'0:01.475',-6.600,-2.600,-13.300,-24.200,-28.100,0.500
'0:01.476',-7.300,-2.600,-12.500,-23.400,-27.700,0.500
'0:01.477',-7.300,-2.600,-11.000,-22.100,-26.900,0.500
'0:01.478',-6.200,-2.500,-9.000,-20.600,-25.800,0.500
'0:01.479',-4.600,-2.300,-7.100,-18.900,-24.300,0.500
'0:01.480',-3.400,-2.000,-5.800,-16.900,-22.500,0.500
'0:01.481',-3.500,-1.400,-5.000,-14.500,-20.700,0.500
'0:01.482',-5.000,-0.500,-4.600,-12.100,-19.000,0.500
'0:01.483',-6.800,0.700,-4.100,-9.900,-17.500,0.500
'0:01.484',-7.800,1.800,-3.100,-8.300,-16.200,0.500
'0:01.485',-7.400,2.600,-1.600,-7.400,-14.800,0.500
'0:01.486',-6.000,3.000,0.300,-7.100,-13.100,0.500
'0:01.487',-4.700,3.000,2.000,-6.900,-11.100,0.500
'0:01.488',-4.700,2.900,3.400,-6.400,-9.000,0.500
'0:01.489',-6.500,3.000,4.200,-5.700,-7.100,0.500
'0:01.490',-9.400,3.300,4.400,-5.100,-6.000,0.500
'0:01.491',-12.400,3.500,4.300,-4.700,-5.700,0.500
'0:01.492',-14.500,3.400,4.000,-4.900,-5.900,0.500
'0:01.493',-15.500,3.000,3.700,-5.300,-6.300,0.500
'0:01.494',-15.400,2.300,3.400,-5.700,-6.500,0.500
'0:01.495',-14.800,1.700,3.100,-5.700,-6.300,0.500
'0:01.496',-13.900,1.500,2.800,-5.300,-5.900,0.500
'0:01.497',-12.700,1.700,2.300,-4.700,-5.600,0.500
'0:01.498',-11.200,2.000,1.800,-4.500,-5.400,0.500
'0:01.499',-9.600,2.300,1.400,-4.800,-5.400,0.500
'0:01.500',-8.500,2.300,1.300,-5.400,-5.300,0.500
'0:01.501',-8.500,1.900,1.400,-6.100,-4.900,0.500
'0:01.502',-9.500,1.500,1.900,-6.600,-4.300,0.500
'0:01.503',-11.400,1.100,2.500,-6.700,-3.700,0.500
'0:01.504',-13.200,0.800,3.100,-6.600,-3.300,0.500
'0:01.505',-14.200,0.400,3.600,-6.500,-3.400,0.500
'0:01.506',-14.200,0.100,4.100,-6.400,-3.600,0.500
'0:01.507',-13.300,-0.300,4.600,-6.300,-3.700,0.500
'0:01.508',-12.000,-0.500,5.400,-5.900,-3.300,0.500
'0:01.509',-10.900,-0.300,6.400,-5.200,-2.400,0.500
'0:01.510',-10.000,0.200,7.600,-4.000,-1.200,0.500
'0:01.511',-9.200,1.000,8.800,-2.900,-0.300,0.500
'0:01.512',-8.300,1.800,9.800,-1.900,0.000,0.500
'0:01.513',-7.500,2.300,10.400,-1.400,-0.200,0.500
'0:01.514',-7.100,2.200,10.500,-1.300,-0.800,0.500
'0:01.515',-7.900,1.600,10.400,-1.200,-1.400,0.500
'0:01.516',-9.800,0.900,10.200,-0.800,-1.600,0.500
'0:01.517',-12.400,0.400,10.000,-0.200,-1.400,0.500
'0:01.518',-14.700,0.500,10.000,0.600,-1.100,0.500
'0:01.519',-15.700,1.200,9.900,1.200,-0.900,0.500
'0:01.520',-15.300,2.200,9.900,1.400,-1.100,0.500
'0:01.521',-13.800,2.900,9.700,1.300,-1.400,0.500
'0:01.522',-12.200,2.900,9.300,0.900,-1.800,0.500
'0:01.523',-11.200,2.200,8.900,0.500,-2.000,0.500
'0:01.524',-10.900,1.000,8.600,0.400,-1.900,0.500
'0:01.525',-10.900,-0.200,8.400,0.500,-1.500,0.500
'0:01.526',-10.400,-1.000,8.500,0.700,-0.900,0.500
'0:01.527',-9.500,-1.000,8.800,1.000,-0.200,0.500
'0:01.528',-8.700,-0.100,9.400,1.400,0.600,0.500
'0:01.529',-8.500,1.200,10.200,1.800,1.300,0.500
'0:01.530',-9.200,2.600,11.200,2.400,2.100,0.500
'0:01.531',-10.500,3.900,12.200,3.200,2.900,0.500
'0:01.532',-11.600,4.800,13.400,3.800,3.900,0.500
'0:01.533',-11.800,5.600,14.500,4.200,5.100,0.500
'0:01.534',-10.800,6.200,15.500,4.300,6.400,0.500
'0:01.535',-9.300,6.800,16.100,4.300,7.400,0.500
'0:01.536',-8.100,7.300,16.300,4.100,7.800,0.500
'0:01.537',-7.900,7.500,15.800,4.000,7.500,0.500
'0:01.538',-8.800,7.300,14.700,3.700,6.600,0.500
'0:01.539',-10.200,6.500,13.100,3.300,5.500,0.500
'0:01.540',-11.100,5.400,11.700,2.600,4.500,0.500
'0:01.541',-10.900,4.300,10.900,1.800,3.800,0.500
'0:01.542',-9.400,3.700,11.000,1.200,3.400,0.500
'0:01.543',-7.300,3.500,11.900,0.800,2.900,0.500
'0:01.544',-5.400,3.500,13.200,0.700,2.400,0.500
'0:01.545',-4.800,3.500,14.000,0.600,1.900,0.500
'0:01.546',-6.000,3.200,14.000,0.500,1.700,0.500
'0:01.547',-8.600,2.500,13.100,0.100,2.000,0.500
'0:01.548',-11.700,1.800,11.900,-0.300,2.800,0.500
'0:01.549',-14.100,1.200,10.800,-0.600,3.600,0.500
'0:01.550',-14.900,1.000,10.400,-0.500,4.200,0.500
'0:01.551',-13.900,1.100,10.400,-0.200,4.300,0.500
'0:01.552',-11.500,1.100,10.700,0.200,4.000,0.500
'0:01.553',-8.600,0.900,11.000,0.500,3.800,0.500
'0:01.554',-6.000,0.500,11.000,0.600,3.700,0.500
'0:01.555',-4.400,0.100,10.900,0.700,3.700,0.500
'0:01.556',-4.100,-0.300,10.900,0.800,3.700,0.500
'0:01.557',-5.400,-0.500,10.900,0.800,3.500,0.500
'0:01.558',-8.200,-0.800,10.800,0.700,3.000,0.500
'0:01.559',-11.900,-1.500,10.300,0.400,2.500,0.500
'0:01.560',-15.300,-2.500,9.500,-0.300,2.000,0.500
'0:01.561',-17.000,-3.700,8.800,-1.300,1.600,0.500
'0:01.562',-16.200,-4.800,8.500,-2.200,1.200,0.500
'0:01.563',-13.300,-5.300,8.800,-2.900,0.800,0.500
'0:01.564',-9.900,-5.300,9.600,-3.300,0.500,0.500
'0:01.565',-7.800,-4.800,10.600,-3.100,0.600,0.500
'0:01.566',-7.900,-4.100,11.400,-2.400,1.500,0.500
'0:01.567',-9.300,-3.300,12.200,-0.900,3.000,0.500
'0:01.568',-10.100,-2.200,13.200,1.000,5.100,0.500
'0:01.569',-8.500,-0.900,14.400,3.100,7.300,0.500
'0:01.570',-3.900,0.600,15.900,4.800,9.100,0.500
'0:01.571',2.700,2.100,17.400,6.000,10.600,0.500
'0:01.572',9.400,3.400,18.600,6.800,12.400,0.500
'0:01.573',15.100,4.500,19.500,8.100,15.100,0.500
'0:01.574',19.900,5.900,20.800,10.500,19.200,0.500
'0:01.575',25.200,7.800,23.100,14.100,24.700,0.500
'0:01.576',32.500,10.600,26.700,18.500,30.800,0.500
'0:01.577',41.901,13.900,31.000,22.300,36.201,0.500
'0:01.578',52.401,17.000,34.801,24.400,39.801,0.500
'0:01.579',61.801,18.800,37.001,24.300,41.101,0.500
'0:01.580',68.101,18.900,36.801,22.600,40.001,0.500
'0:01.581',70.501,17.600,34.401,20.100,37.401,0.500
'0:01.582',69.201,15.500,30.900,18.000,34.101,0.500
'0:01.583',64.901,13.500,27.500,16.300,30.500,0.500
'0:01.584',58.701,11.900,24.600,14.800,26.600,0.500
'0:01.585',50.701,10.500,22.100,12.500,22.100,0.500
'0:01.586',40.801,8.800,19.300,9.000,16.800,0.500
'0:01.587',28.800,6.300,15.700,4.800,11.000,0.500
'0:01.588',14.600,3.100,11.300,0.600,5.300,0.500
'0:01.589',-1.200,-0.200,6.800,-2.500,0.500,0.500
'0:01.590',-17.400,-2.800,3.200,-4.000,-2.900,0.500
'0:01.591',-32.200,-4.500,0.900,-4.100,-5.000,0.500
'0:01.592',-43.701,-5.400,0.000,-3.600,-6.200,0.500
'0:01.593',-50.901,-6.100,-0.100,-3.300,-7.100,0.500
'0:01.594',-53.801,-6.900,0.000,-3.600,-7.700,0.500
'0:01.595',-53.601,-7.900,0.000,-4.200,-7.800,0.500
'0:01.596',-51.901,-9.000,0.100,-4.700,-7.100,0.500
'0:01.597',-50.001,-9.400,0.600,-4.600,-5.300,0.500
'0:01.598',-48.601,-8.900,1.800,-3.700,-2.700,0.500
'0:01.599',-47.301,-7.600,3.600,-2.100,0.100,0.500
'0:01.600',-45.301,-5.900,5.400,-0.200,2.600,0.500
'0:01.601',-41.901,-4.400,6.700,1.600,4.300,0.500
'0:01.602',-36.901,-3.500,7.200,2.900,5.600,0.500
'0:01.603',-30.600,-3.200,6.900,3.700,6.600,0.500
'0:01.604',-23.900,-3.300,6.100,4.100,7.500,0.500
'0:01.605',-17.700,-3.600,5.400,4.100,8.400,0.500
'0:01.606',-12.800,-4.000,4.900,3.800,8.900,0.500
'0:01.607',-9.700,-4.400,4.500,3.500,9.100,0.500
'0:01.608',-8.500,-5.000,4.400,3.400,8.800,0.500
'0:01.609',-8.600,-5.600,4.600,3.700,8.700,0.500
'0:01.610',-9.300,-5.900,5.300,4.300,8.900,0.500
'0:01.611',-9.600,-5.700,6.500,5.200,9.500,0.500
'0:01.612',-9.200,-5.100,7.900,5.900,10.300,0.500
'0:01.613',-8.300,-4.400,8.900,6.200,10.900,0.500
'0:01.614',-7.500,-4.000,9.100,6.000,11.200,0.500
'0:01.615',-7.400,-4.100,8.400,5.500,11.300,0.500
'0:01.616',-8.200,-4.800,7.200,5.000,11.500,0.500
'0:01.617',-9.600,-5.600,6.300,4.700,12.200,0.500
'0:01.618',-10.900,-6.200,6.100,4.700,13.000,0.500
'0:01.619',-11.500,-6.500,6.600,4.800,13.700,0.500
'0:01.620',-10.900,-6.700,7.500,4.700,13.800,0.500
'0:01.621',-9.500,-7.000,8.000,4.300,13.300,0.500
'0:01.622',-7.600,-7.700,7.800,3.800,12.600,0.500
'0:01.623',-6.000,-8.500,7.000,3.600,12.100,0.500
'0:01.624',-5.400,-9.200,6.000,4.000,12.500,0.500
'0:01.625',-6.000,-9.300,5.400,4.800,13.600,0.500
'0:01.626',-7.800,-8.600,5.200,6.000,14.900,0.500
'0:01.627',-10.100,-7.500,5.400,7.000,15.800,0.500
'0:01.628',-11.900,-6.100,5.400,7.700,15.700,0.500
'0:01.629',-12.400,-5.100,5.000,7.800,14.700,0.500
'0:01.630',-11.000,-4.600,4.200,7.400,13.400,0.500
'0:01.631',-8.400,-4.800,3.500,6.500,12.300,0.500
'0:01.632',-5.500,-5.400,3.200,5.300,11.900,0.500
'0:01.633',-3.300,-6.200,3.300,3.900,12.000,0.500
'0:01.634',-2.500,-7.000,3.600,2.800,12.500,0.500
'0:01.635',-3.100,-7.600,3.700,2.200,12.900,0.500
'0:01.636',-4.400,-8.200,3.500,2.200,13.200,0.500
'0:01.637',-5.800,-8.800,2.900,2.700,13.200,0.500
'0:01.638',-6.700,-9.400,2.400,3.500,13.100,0.500
'0:01.639',-6.900,-10.100,2.300,4.300,13.200,0.500
'0:01.640',-6.400,-10.600,2.800,5.000,13.600,0.500
'0:01.641',-5.600,-10.700,3.700,5.400,14.300,0.500
'0:01.642',-4.800,-10.500,4.600,5.900,15.100,0.500
'0:01.643',-4.000,-10.100,5.200,6.500,15.700,0.500
'0:01.644',-3.400,-9.700,5.200,7.200,16.000,0.500
'0:01.645',-2.900,-9.600,4.700,7.700,15.800,0.500
'0:01.646',-2.500,-9.900,4.100,7.800,15.400,0.500
'0:01.647',-2.000,-10.500,3.500,7.500,15.000,0.500
'0:01.648',-1.700,-11.300,3.200,6.900,14.900,0.500
'0:01.649',-1.800,-12.000,3.100,6.200,15.200,0.500
'0:01.650',-2.400,-12.600,3.000,5.700,15.600,0.500
'0:01.651',-3.300,-13.400,2.600,5.300,15.700,0.500
'0:01.652',-3.900,-14.500,1.800,4.900,15.100,0.500
'0:01.653',-3.700,-15.900,0.700,4.300,14.000,0.500
'0:01.654',-2.800,-17.600,-0.300,3.600,12.700,0.500
'0:01.655',-1.700,-19.000,-1.000,2.900,12.000,0.500
'0:01.656',-1.100,-19.800,-0.900,2.400,12.300,0.500
'0:01.657',-1.800,-19.500,-0.100,2.000,13.300,0.500
'0:01.658',-3.400,-18.400,1.100,1.800,14.600,0.500
'0:01.659',-5.200,-17.000,2.200,1.700,15.400,0.500
'0:01.660',-6.200,-15.900,2.900,1.600,15.400,0.500
'0:01.661',-6.200,-15.700,2.800,1.500,14.600,0.500
'0:01.662',-5.500,-16.500,2.100,1.400,13.600,0.500
'0:01.663',-5.100,-17.900,1.100,1.600,13.000,0.500
'0:01.664',-5.400,-19.500,0.300,2.000,12.900,0.500
'0:01.665',-6.100,-20.500,-0.200,2.600,13.200,0.500
'0:01.666',-6.300,-20.900,-0.400,3.400,13.400,0.500
'0:01.667',-5.100,-20.800,-0.700,4.200,13.200,0.500
'0:01.668',-2.600,-20.600,-1.400,4.700,12.700,0.500
'0:01.669',-0.100,-20.800,-2.700,4.800,12.100,0.500
'0:01.670',1.100,-21.600,-4.400,4.400,11.700,0.500
'0:01.671',0.200,-22.800,-5.900,3.700,11.700,0.500
'0:01.672',-2.000,-23.900,-6.800,3.100,11.900,0.500
'0:01.673',-3.600,-24.700,-6.600,2.800,12.100,0.500
'0:01.674',-3.000,-24.800,-5.500,3.000,12.400,0.500
'0:01.675',0.100,-24.200,-4.100,3.700,12.800,0.500
'0:01.676',4.200,-23.400,-2.800,4.600,13.400,0.500
'0:01.677',7.100,-22.500,-2.200,5.400,14.500,0.500
'0:01.678',7.000,-21.700,-2.100,6.000,16.100,0.500
'0:01.679',3.900,-21.200,-2.600,6.300,17.700,0.500
'0:01.680',-0.400,-20.900,-3.100,6.300,18.800,0.500
'0:01.681',-3.500,-20.700,-3.500,6.200,19.000,0.500
'0:01.682',-4.100,-20.500,-3.700,5.900,18.100,0.500
'0:01.683',-2.300,-20.300,-3.600,5.400,16.800,0.500
'0:01.684',0.000,-20.100,-3.200,5.000,15.600,0.500
'0:01.685',1.100,-19.700,-2.400,4.800,15.200,0.500
'0:01.686',0.300,-19.200,-1.400,4.900,15.800,0.500
'0:01.687',-1.500,-18.400,-0.500,5.300,16.800,0.500
'0:01.688',-2.900,-17.600,0.200,5.500,17.700,0.500
'0:01.689',-2.500,-17.100,0.400,5.500,17.700,0.500
'0:01.690',-0.600,-16.900,0.000,5.100,16.800,0.500
'0:01.691',1.700,-17.100,-0.600,4.500,15.300,0.500
'0:01.692',2.900,-17.600,-1.100,3.900,13.900,0.500
'0:01.693',2.400,-18.100,-1.300,3.300,13.000,0.500
'0:01.694',0.600,-18.500,-1.200,2.800,12.700,0.500
'0:01.695',-1.300,-18.800,-1.100,2.100,12.600,0.500
'0:01.696',-2.300,-19.000,-1.300,1.400,12.400,0.500
'0:01.697',-2.000,-19.100,-1.800,0.900,11.900,0.500
'0:01.698',-0.900,-18.800,-2.300,0.800,11.200,0.500
'0:01.699',0.200,-18.100,-2.500,1.200,10.700,0.500
'0:01.700',0.900,-16.800,-2.300,2.000,10.600,0.500
'0:01.701',0.800,-15.200,-1.700,2.800,11.000,0.500
'0:01.702',0.100,-13.500,-1.100,3.300,11.600,0.500
'0:01.703',-1.100,-12.400,-0.800,3.500,12.200,0.500
'0:01.704',-2.600,-11.700,-0.700,3.700,12.900,0.500
'0:01.705',-4.300,-11.400,-0.600,4.300,13.400,0.500
'0:01.706',-5.400,-11.000,-0.100,5.500,14.000,0.500
'0:01.707',-5.200,-10.100,0.700,7.200,14.300,0.500
'0:01.708',-3.300,-8.600,1.500,8.600,14.200,0.500
'0:01.709',0.000,-6.800,2.000,9.400,13.600,0.500
'0:01.710',3.700,-5.400,1.800,9.300,12.700,0.500
'0:01.711',6.100,-4.700,1.200,8.300,11.700,0.500
'0:01.712',6.400,-4.800,0.800,7.100,10.900,0.500
'0:01.713',4.600,-5.400,0.900,6.300,10.400,0.500
'0:01.714',2.200,-5.800,1.900,6.200,10.300,0.500
'0:01.715',0.600,-5.700,3.200,6.800,10.100,0.500
'0:01.716',0.800,-5.000,4.300,7.600,9.700,0.500
'0:01.717',2.700,-4.200,4.800,8.200,9.200,0.500
'0:01.718',5.200,-3.600,4.500,8.300,8.700,0.500
'0:01.719',7.000,-3.500,4.000,7.900,8.600,0.500
'0:01.720',7.000,-3.600,3.800,7.300,8.900,0.500
'0:01.721',5.300,-3.600,4.300,6.900,9.300,0.500
'0:01.722',2.300,-2.900,5.300,6.800,9.500,0.500
'0:01.723',-1.000,-1.500,6.200,6.900,9.200,0.500
'0:01.724',-3.400,0.100,6.400,6.900,8.400,0.500
'0:01.725',-4.400,1.400,5.800,6.600,7.300,0.500
'0:01.726',-3.600,1.900,4.400,5.900,6.200,0.500
'0:01.727',-1.200,1.500,2.900,5.200,5.300,0.500
'0:01.728',1.800,0.600,2.000,4.800,4.700,0.500
'0:01.729',4.400,0.000,2.000,5.000,4.200,0.500
'0:01.730',5.700,0.000,3.000,5.700,3.800,0.500
'0:01.731',5.600,1.000,4.500,6.800,3.400,0.500
'0:01.732',4.400,2.800,6.100,7.800,3.200,0.500
'0:01.733',2.900,4.900,7.500,8.700,3.500,0.500
'0:01.734',1.700,6.900,8.400,9.500,4.300,0.500
'0:01.735',1.000,8.600,9.000,10.200,5.600,0.500
'0:01.736',0.400,10.000,9.600,10.800,6.900,0.500
'0:01.737',-0.100,11.200,10.000,11.300,7.900,0.500
'0:01.738',-0.400,12.000,10.100,11.300,8.100,0.500
'0:01.739',-0.200,12.300,9.700,10.600,7.400,0.500
'0:01.740',0.900,11.800,8.500,9.200,5.900,0.500
'0:01.741',2.500,10.600,6.700,7.200,4.100,0.500
'0:01.742',4.200,9.100,4.700,5.000,2.300,0.500
'0:01.743',5.100,7.700,3.100,3.100,0.900,0.500
'0:01.744',5.400,6.900,2.500,1.900,0.000,0.500
'0:01.745',5.600,6.800,3.000,1.400,-0.400,0.500
'0:01.746',6.400,7.200,4.200,1.200,-0.600,0.500
'0:01.747',7.900,7.600,5.600,1.100,-0.900,0.500
'0:01.748',9.300,7.700,6.600,0.700,-1.500,0.500
'0:01.749',9.400,7.400,7.300,0.100,-2.000,0.500
'0:01.750',7.700,6.800,7.800,-0.300,-2.400,0.500
'0:01.751',4.600,6.500,8.600,-0.400,-2.400,0.500
'0:01.752',1.800,6.600,10.000,0.100,-1.900,0.500
'0:01.753',0.900,7.200,11.900,0.900,-1.200,0.500
'0:01.754',2.300,7.900,13.600,1.500,-0.700,0.500
'0:01.755',5.000,8.500,14.800,1.500,-0.600,0.500
'0:01.756',7.000,8.600,15.000,0.900,-1.000,0.500
'0:01.757',7.100,8.200,14.500,-0.300,-1.800,0.500
'0:01.758',5.200,7.700,13.800,-1.400,-2.500,0.500
'0:01.759',2.900,7.200,13.300,-2.000,-2.800,0.500
'0:01.760',2.100,7.100,13.500,-1.800,-2.600,0.500
'0:01.761',3.600,7.400,13.900,-1.000,-2.100,0.500
'0:01.762',6.800,7.700,14.200,0.200,-1.700,0.500
'0:01.763',9.400,8.000,13.900,1.400,-1.500,0.500
'0:01.764',9.700,7.900,12.600,2.300,-1.700,0.500
'0:01.765',7.300,7.500,10.700,2.600,-2.100,0.500
'0:01.766',3.800,6.800,8.700,2.500,-2.400,0.500
'0:01.767',1.300,6.200,7.500,2.000,-2.400,0.500
'0:01.768',1.500,6.000,7.200,1.500,-2.100,0.500
'0:01.769',4.300,6.300,7.800,1.000,-1.600,0.500
'0:01.770',8.100,7.000,8.700,0.600,-1.100,0.500
'0:01.771',10.900,7.700,9.500,0.400,-0.700,0.500
'0:01.772',11.600,8.000,9.800,0.200,-0.500,0.500
'0:01.773',10.500,7.900,9.500,0.000,-0.500,0.500
'0:01.774',8.900,7.300,9.100,-0.200,-0.700,0.500
'0:01.775',8.000,6.500,8.800,-0.400,-1.100,0.500
'0:01.776',8.200,5.700,8.700,-0.700,-1.700,0.500
'0:01.777',9.300,5.200,8.900,-0.800,-2.300,0.500
'0:01.778',10.200,5.100,9.000,-0.700,-2.800,0.500
'0:01.779',10.200,5.100,8.700,-0.400,-3.100,0.500
'0:01.780',9.300,5.200,8.000,0.200,-3.000,0.500
'0:01.781',7.900,5.100,7.100,0.800,-2.800,0.500
'0:01.782',6.600,4.700,6.500,1.100,-2.700,0.500
'0:01.783',5.500,4.100,6.500,0.900,-2.900,0.500
'0:01.784',4.500,3.700,6.900,0.400,-3.200,0.500
'0:01.785',3.100,3.800,7.300,-0.300,-3.500,0.500
'0:01.786',1.100,4.300,7.300,-0.900,-3.500,0.500
'0:01.787',-1.100,5.100,6.600,-1.300,-3.100,0.500
'0:01.788',-2.600,5.800,5.400,-1.400,-2.600,0.500
'0:01.789',-2.400,6.000,4.300,-1.400,-2.300,0.500
'0:01.790',-0.300,5.800,3.900,-1.600,-2.400,0.500
'0:01.791',2.700,5.400,4.400,-2.000,-2.900,0.500
'0:01.792',4.700,5.100,5.400,-2.700,-3.700,0.500
'0:01.793',4.100,5.200,6.600,-3.300,-4.400,0.500
'0:01.794',0.800,5.500,7.100,-3.700,-4.800,0.500
'0:01.795',-3.700,5.600,7.000,-3.600,-4.700,0.500
'0:01.796',-6.900,5.600,6.400,-3.000,-4.200,0.500
'0:01.797',-6.700,5.500,6.000,-1.900,-3.500,0.500
'0:01.798',-2.700,5.800,6.200,-0.400,-2.800,0.500
'0:01.799',3.100,6.700,7.100,1.100,-2.300,0.500
'0:01.800',7.900,8.000,8.300,2.200,-2.000,0.500
'0:01.801',9.500,9.200,9.300,2.600,-2.100,0.500
'0:01.802',8.000,9.700,9.600,2.100,-2.400,0.500
'0:01.803',5.000,9.000,8.900,1.000,-2.900,0.500
'0:01.804',2.800,7.600,7.400,-0.500,-3.500,0.500
'0:01.805',2.800,6.200,5.400,-1.800,-4.000,0.500
'0:01.806',4.700,5.300,3.600,-2.600,-4.200,0.500
'0:01.807',7.100,5.200,2.200,-2.700,-4.000,0.500
'0:01.808',8.400,5.900,1.600,-2.500,-3.500,0.500
'0:01.809',8.200,6.900,1.900,-1.900,-2.700,0.500
'0:01.810',7.100,8.000,3.100,-1.200,-1.600,0.500
'0:01.811',6.100,9.000,4.900,-0.400,-0.600,0.500
'0:01.812',5.700,10.000,6.800,0.300,0.300,0.500
'0:01.813',5.900,11.000,8.400,0.900,0.900,0.500
'0:01.814',6.200,11.900,9.400,1.300,1.100,0.500
'0:01.815',6.200,12.500,9.600,1.400,0.900,0.500
'0:01.816',6.000,12.800,9.300,1.300,0.500,0.500
'0:01.817',5.600,12.600,8.900,1.200,0.100,0.500
'0:01.818',5.000,12.200,8.700,1.300,-0.100,0.500
'0:01.819',4.000,11.700,8.700,1.400,-0.300,0.500
'0:01.820',3.000,11.100,9.000,1.400,-0.400,0.500
'0:01.821',2.600,10.700,9.300,1.400,-0.600,0.500
'0:01.822',3.500,10.400,9.500,1.300,-1.000,0.500
'0:01.823',6.100,10.500,9.500,1.300,-1.200,0.500
'0:01.824',10.100,10.800,9.500,1.600,-1.300,0.500
'0:01.825',13.800,11.200,9.500,2.100,-1.000,0.500
'0:01.826',15.600,11.400,9.400,2.400,-0.700,0.500
'0:01.827',14.700,11.000,9.100,2.200,-0.600,0.500
'0:01.828',11.700,10.200,8.600,1.600,-0.800,0.500
'0:01.829',8.400,9.200,8.000,0.800,-1.500,0.500
'0:01.830',6.900,8.500,7.600,0.500,-2.300,0.500
'0:01.831',8.200,8.500,7.400,0.900,-2.900,0.500
'0:01.832',11.600,9.300,7.800,2.000,-3.100,0.500
'0:01.833',15.000,10.500,8.500,3.300,-2.700,0.500
'0:01.834',16.500,11.700,9.300,4.000,-1.900,0.500
'0:01.835',15.100,12.600,10.000,3.900,-1.100,0.500
'0:01.836',11.700,13.200,10.300,3.100,-0.300,0.500
'0:01.837',8.400,13.700,10.200,2.200,0.200,0.500
'0:01.838',7.300,14.100,9.900,1.700,0.400,0.500
'0:01.839',9.300,14.500,9.300,1.700,0.500,0.500
'0:01.840',13.500,14.700,8.700,2.000,0.500,0.500
'0:01.841',17.900,14.300,8.000,2.200,0.600,0.500
'0:01.842',20.300,13.200,7.400,2.000,0.600,0.500
'0:01.843',19.900,11.600,6.900,1.500,0.500,0.500
'0:01.844',17.200,9.900,6.500,1.000,0.200,0.500
'0:01.845',14.000,8.300,6.300,0.800,-0.400,0.500
'0:01.846',12.300,7.200,6.100,0.700,-1.400,0.500
'0:01.847',13.000,6.400,5.700,0.700,-2.600,0.500
'0:01.848',15.500,5.900,5.000,0.400,-3.800,0.500
'0:01.849',18.200,5.400,4.000,-0.400,-4.500,0.500
'0:01.850',19.700,5.100,3.000,-1.500,-4.800,0.500
'0:01.851',19.000,5.000,2.100,-2.500,-4.600,0.500
'0:01.852',16.700,5.300,1.700,-3.300,-4.300,0.500
'0:01.853',14.200,5.900,1.800,-3.600,-4.200,0.500
'0:01.854',12.900,6.600,2.300,-3.700,-4.300,0.500
'0:01.855',13.400,7.100,2.900,-3.500,-4.700,0.500
'0:01.856',15.300,7.400,3.200,-3.300,-5.000,0.500
'0:01.857',17.500,7.400,3.300,-3.100,-5.000,0.500
'0:01.858',18.900,7.500,3.100,-2.800,-4.600,0.500
'0:01.859',19.300,7.800,3.000,-2.600,-3.800,0.500
'0:01.860',19.100,8.300,2.900,-2.400,-2.900,0.500
'0:01.861',19.200,8.800,2.800,-2.300,-2.400,0.500
'0:01.862',19.900,8.800,2.600,-2.400,-2.500,0.500
'0:01.863',20.900,8.200,2.100,-2.700,-3.100,0.500
'0:01.864',21.700,7.300,1.400,-2.900,-4.200,0.500
'0:01.865',21.600,6.300,0.700,-3.200,-5.200,0.500
'0:01.866',20.600,5.700,0.400,-3.400,-5.900,0.500
'0:01.867',19.400,5.700,0.700,-3.600,-6.300,0.500
'0:01.868',18.700,6.300,1.400,-3.800,-6.600,0.500
'0:01.869',19.200,7.000,2.100,-4.400,-7.100,0.500
'0:01.870',20.500,7.400,2.500,-5.200,-7.800,0.500
'0:01.871',21.700,7.400,2.100,-6.300,-8.400,0.500
'0:01.872',22.200,6.900,1.300,-7.400,-8.800,0.500
'0:01.873',22.100,6.200,0.400,-8.200,-8.600,0.500
'0:01.874',22.200,5.500,-0.200,-8.200,-7.900,0.500
'0:01.875',23.300,5.200,-0.300,-7.500,-6.800,0.500
'0:01.876',25.600,5.200,0.100,-6.200,-5.800,0.500
'0:01.877',28.200,5.600,0.500,-4.700,-5.000,0.500
'0:01.878',29.600,6.000,0.800,-3.800,-4.400,0.500
'0:01.879',28.600,6.400,1.000,-3.500,-4.000,0.500
'0:01.880',25.500,6.700,1.100,-3.800,-3.600,0.500
'0:01.881',21.900,6.900,1.500,-4.500,-3.100,0.500
'0:01.882',20.000,7.100,2.300,-5.000,-2.700,0.500
'0:01.883',21.100,7.500,3.200,-5.100,-2.300,0.500
'0:01.884',24.900,7.900,4.100,-4.800,-2.200,0.500
'0:01.885',29.600,8.200,4.600,-4.200,-2.300,0.500
'0:01.886',33.001,8.200,4.600,-3.600,-2.200,0.500
'0:01.887',33.401,8.000,3.800,-3.000,-2.000,0.500
'0:01.888',31.100,7.400,2.600,-2.400,-1.600,0.500
'0:01.889',27.500,6.700,1.200,-1.800,-1.000,0.500
'0:01.890',24.400,6.000,0.100,-1.300,-0.500,0.500
'0:01.891',23.100,5.600,-0.600,-0.900,0.000,0.500
'0:01.892',23.600,5.600,-0.500,-0.500,0.300,0.500
'0:01.893',25.200,6.100,0.300,-0.300,0.300,0.500
'0:01.894',26.900,6.800,1.300,-0.200,0.100,0.500
'0:01.895',28.200,7.500,2.300,-0.400,-0.300,0.500
'0:01.896',29.300,7.900,2.800,-0.800,-1.000,0.500
'0:01.897',30.700,7.800,2.900,-1.600,-1.700,0.500
'0:01.898',32.500,7.100,2.700,-2.400,-2.300,0.500
'0:01.899',34.501,6.400,2.600,-2.900,-2.400,0.500
'0:01.900',36.001,5.900,2.900,-2.800,-2.000,0.500
'0:01.901',36.701,6.200,3.500,-1.900,-1.200,0.500
'0:01.902',36.501,7.000,4.400,-0.700,-0.400,0.500
'0:01.903',36.001,8.000,5.200,0.400,-0.100,0.500
'0:01.904',35.701,8.500,5.600,0.900,-0.300,0.500
'0:01.905',36.201,8.300,5.500,0.600,-1.100,0.500
'0:01.906',37.201,7.300,4.700,-0.300,-2.100,0.500
'0:01.907',37.801,6.100,3.500,-1.200,-2.700,0.500
'0:01.908',37.401,5.100,2.200,-1.600,-2.500,0.500
'0:01.909',35.601,4.800,1.400,-1.300,-1.600,0.500
'0:01.910',33.401,5.300,1.400,-0.500,-0.300,0.500
'0:01.911',31.800,6.400,2.500,0.400,0.600,0.500
'0:01.912',32.100,7.700,4.300,1.100,0.600,0.500
'0:01.913',34.301,8.700,6.200,1.100,-0.400,0.500
'0:01.914',37.401,9.300,7.400,0.800,-1.900,0.500
'0:01.915',39.801,9.400,7.600,0.300,-3.500,0.500
'0:01.916',40.101,9.100,7.000,-0.100,-4.600,0.500
'0:01.917',38.001,8.500,5.900,-0.200,-4.900,0.500
'0:01.918',34.501,7.900,5.100,-0.200,-4.800,0.500
'0:01.919',31.100,7.300,4.600,-0.200,-4.600,0.500
'0:01.920',29.200,6.900,4.400,-0.600,-4.500,0.500
'0:01.921',29.300,6.700,4.100,-1.300,-4.800,0.500
'0:01.922',30.900,6.700,3.800,-2.300,-5.100,0.500
'0:01.923',33.201,6.700,3.400,-3.100,-5.300,0.500
'0:01.924',35.101,6.700,3.300,-3.500,-5.300,0.500
'0:01.925',35.901,6.400,3.300,-3.500,-5.400,0.500
'0:01.926',35.501,6.000,3.000,-3.300,-5.600,0.500
'0:01.927',34.001,5.300,2.200,-3.200,-6.200,0.500
'0:01.928',31.700,4.600,0.700,-3.600,-6.900,0.500
'0:01.929',29.400,4.000,-1.300,-4.300,-7.500,0.500
'0:01.930',27.800,3.900,-3.000,-5.100,-7.500,0.500
'0:01.931',27.400,4.500,-3.700,-5.500,-6.800,0.500
'0:01.932',28.300,5.800,-3.200,-5.100,-5.600,0.500
'0:01.933',29.900,7.600,-1.600,-3.900,-4.100,0.500
'0:01.934',31.300,9.500,0.300,-2.400,-2.600,0.500
'0:01.935',31.600,10.900,2.000,-0.800,-1.400,0.500
'0:01.936',30.600,11.900,3.000,0.300,-0.600,0.500
'0:01.937',28.800,12.400,3.600,1.000,-0.200,0.500
'0:01.938',27.100,12.900,3.800,1.600,-0.200,0.500
'0:01.939',26.000,13.500,3.900,2.200,-0.500,0.500
'0:01.940',25.800,14.000,3.700,2.800,-1.100,0.500
'0:01.941',25.900,14.000,2.900,3.100,-1.900,0.500
'0:01.942',25.900,13.100,1.500,2.900,-2.800,0.500
'0:01.943',25.900,11.300,-0.500,1.900,-3.600,0.500
'0:01.944',26.000,9.000,-2.500,0.600,-4.300,0.500
'0:01.945',26.900,7.000,-3.800,-0.600,-4.800,0.500
'0:01.946',28.400,5.700,-4.000,-1.400,-5.100,0.500
'0:01.947',29.900,5.400,-3.200,-1.800,-5.400,0.500
'0:01.948',30.700,5.700,-1.700,-2.000,-5.800,0.500
'0:01.949',30.400,5.900,-0.400,-2.400,-6.300,0.500
'0:01.950',29.300,5.800,0.100,-3.400,-6.900,0.500
'0:01.951',28.500,5.100,-0.200,-4.600,-7.200,0.500
'0:01.952',28.900,4.400,-1.300,-5.900,-7.000,0.500
'0:01.953',30.600,4.000,-2.600,-6.800,-6.500,0.500
'0:01.954',32.500,4.200,-3.500,-7.100,-5.900,0.500
'0:01.955',33.101,4.800,-3.700,-6.900,-5.400,0.500
'0:01.956',31.500,5.600,-3.300,-6.500,-5.300,0.500
'0:01.957',27.800,6.100,-2.400,-6.100,-5.500,0.500
'0:01.958',23.500,6.200,-1.500,-5.800,-5.800,0.500
'0:01.959',20.400,5.800,-0.800,-5.500,-6.000,0.500
'0:01.960',20.000,5.300,-0.500,-5.200,-5.900,0.500
'0:01.961',22.300,4.800,-0.500,-4.800,-5.600,0.500
'0:01.962',26.300,4.700,-0.700,-4.100,-5.200,0.500
'0:01.963',30.300,4.900,-0.800,-3.500,-4.900,0.500
'0:01.964',33.101,5.300,-1.000,-3.100,-4.800,0.500
'0:01.965',34.401,5.700,-1.300,-3.100,-5.100,0.500
'0:01.966',34.301,5.700,-2.000,-3.700,-5.600,0.500
'0:01.967',33.601,5.300,-2.900,-4.600,-6.400,0.500
'0:01.968',32.400,4.500,-4.000,-5.400,-7.300,0.500
'0:01.969',31.000,3.600,-4.900,-5.800,-8.200,0.500
'0:01.970',29.400,2.800,-5.500,-5.700,-8.700,0.500
'0:01.971',28.200,2.300,-5.600,-5.200,-9.000,0.500
'0:01.972',27.900,2.100,-5.300,-4.700,-8.900,0.500
'0:01.973',29.100,2.300,-4.700,-4.500,-8.700,0.500
'0:01.974',31.600,2.500,-4.000,-4.600,-8.500,0.500
'0:01.975',34.501,2.900,-3.300,-4.900,-8.400,0.500
'0:01.976',36.801,3.200,-2.500,-5.100,-8.300,0.500
'0:01.977',37.601,3.500,-1.600,-5.000,-8.200,0.500
'0:01.978',37.001,3.700,-0.600,-4.700,-7.800,0.500
'0:01.979',35.801,4.000,0.400,-4.300,-7.200,0.500
'0:01.980',35.301,4.300,1.300,-4.100,-6.500,0.500
'0:01.981',35.901,4.800,1.800,-4.000,-5.900,0.500
'0:01.982',37.301,5.400,1.700,-4.100,-5.400,0.500
'0:01.983',38.401,5.800,1.300,-4.100,-5.200,0.500
'0:01.984',38.301,5.900,0.500,-4.200,-5.100,0.500
'0:01.985',36.801,5.600,-0.300,-4.500,-5.100,0.500
'0:01.986',34.801,5.100,-0.900,-5.000,-5.200,0.500
'0:01.987',33.501,4.700,-1.100,-5.700,-5.300,0.500
'0:01.988',33.701,4.700,-0.900,-6.400,-5.500,0.500
'0:01.989',34.901,5.100,-0.600,-6.900,-5.900,0.500
'0:01.990',36.001,5.500,-0.200,-7.000,-6.400,0.500
'0:01.991',35.801,5.600,-0.100,-6.700,-6.700,0.500
'0:01.992',34.001,5.100,-0.500,-6.200,-6.700,0.500
'0:01.993',31.300,4.100,-1.100,-5.700,-6.100,0.500
'0:01.994',29.000,3.200,-1.900,-5.300,-5.100,0.500
'0:01.995',28.300,2.900,-2.500,-5.000,-3.900,0.500
'0:01.996',29.500,3.500,-2.600,-4.600,-2.800,0.500
'0:01.997',32.000,4.600,-2.100,-4.000,-1.900,0.500
'0:01.998',34.401,5.800,-1.300,-3.300,-1.300,0.500
'0:01.999',35.901,6.600,-0.500,-2.700,-0.900,0.500
'0:02.000',36.201,6.700,0.100,-2.400,-0.700,0.500
'0:02.001',35.801,6.300,0.200,-2.600,-0.500,0.500
'0:02.002',35.301,5.700,-0.200,-3.200,-0.300,0.500
'0:02.003',35.201,5.200,-0.600,-4.100,-0.300,0.500
'0:02.004',35.301,5.000,-0.800,-4.700,-0.400,0.500
'0:02.005',35.501,5.000,-0.500,-4.700,-0.500,0.500
'0:02.006',35.901,5.100,0.300,-4.000,-0.500,0.500
'0:02.007',36.401,5.300,1.300,-2.700,-0.500,0.500
'0:02.008',37.401,5.600,2.200,-1.400,-0.400,0.500
'0:02.009',38.401,6.100,2.600,-0.500,-0.500,0.500
'0:02.010',38.701,6.500,2.400,-0.400,-0.700,0.500
'0:02.011',37.601,6.700,1.500,-0.800,-0.900,0.500
'0:02.012',34.801,6.600,0.600,-1.400,-1.000,0.500
'0:02.013',31.200,6.200,-0.100,-1.500,-0.700,0.500
'0:02.014',28.500,5.700,0.100,-1.100,0.000,0.500
'0:02.015',27.900,5.400,1.100,-0.200,0.800,0.500
'0:02.016',29.900,5.500,2.500,0.600,1.600,0.500
'0:02.017',33.501,5.700,3.600,1.000,1.800,0.500
'0:02.018',36.901,6.000,3.600,0.700,1.300,0.500
'0:02.019',38.701,5.900,2.400,0.000,0.500,0.500
'0:02.020',38.201,5.500,0.500,-0.800,-0.300,0.500
'0:02.021',36.401,4.900,-1.500,-1.200,-0.800,0.500
'0:02.022',34.601,4.300,-2.900,-0.800,-0.700,0.500
'0:02.023',34.001,3.700,-3.500,0.000,-0.300,0.500
'0:02.024',34.801,3.300,-3.400,0.700,0.000,0.500
'0:02.025',36.001,3.000,-3.100,1.100,-0.100,0.500
'0:02.026',36.501,2.500,-2.900,0.800,-0.500,0.500
'0:02.027',35.401,2.200,-2.700,0.300,-0.900,0.500
'0:02.028',33.001,2.200,-2.300,-0.200,-1.200,0.500
'0:02.029',30.100,2.600,-1.600,0.000,-1.000,0.500
'0:02.030',28.200,3.400,-0.900,0.700,-0.500,0.500
'0:02.031',28.100,4.400,-0.500,1.600,0.200,0.500
'0:02.032',30.300,5.100,-0.500,2.300,0.900,0.500
'0:02.033',34.201,5.400,-1.000,2.500,1.600,0.500
'0:02.034',38.801,5.200,-1.700,2.000,2.400,0.500
'0:02.035',43.301,4.800,-2.200,1.200,3.300,0.500
'0:02.036',47.201,4.400,-2.400,0.400,4.100,0.500
'0:02.037',50.401,4.100,-2.100,-0.100,4.800,0.500
'0:02.038',53.301,4.000,-1.600,0.200,5.800,0.500
'0:02.039',56.701,4.300,-0.600,1.400,7.600,0.500
'0:02.040',61.301,5.100,1.300,3.500,10.900,0.500
'0:02.041',67.801,7.000,4.200,6.600,15.700,0.500
'0:02.042',76.601,9.800,8.100,10.100,21.500,0.500
'0:02.043',87.401,13.600,12.300,13.500,26.900,0.500
'0:02.044',99.102,17.300,15.600,16.000,30.700,0.500
'0:02.045',109.802,20.200,17.100,17.000,32.100,0.500
'0:02.046',117.402,21.400,16.500,16.500,31.100,0.500
'0:02.047',120.402,20.800,14.400,15.000,28.800,0.500
'0:02.048',118.502,18.900,11.500,13.100,26.000,0.500
'0:02.049',112.602,16.500,8.800,11.100,23.300,0.500
'0:02.050',104.402,14.400,6.500,9.300,20.400,0.500
'0:02.051',95.101,12.900,4.400,7.200,16.800,0.500
'0:02.052',85.201,11.500,1.800,4.400,11.700,0.500
'0:02.053',74.301,9.600,-1.900,0.700,5.100,0.500
'0:02.054',62.001,6.800,-6.500,-3.700,-2.300,0.500
'0:02.055',48.301,3.200,-11.600,-8.000,-9.400,0.500
'0:02.056',34.001,-0.800,-16.200,-11.600,-15.100,0.500
'0:02.057',20.600,-4.400,-19.400,-13.800,-18.800,0.500
'0:02.058',9.400,-6.700,-20.700,-14.700,-20.400,0.500
'0:02.059',1.200,-7.700,-20.400,-14.600,-20.200,0.500
'0:02.060',-4.000,-7.400,-19.100,-14.100,-18.900,0.500
'0:02.061',-6.300,-6.400,-17.300,-13.500,-17.200,0.500
'0:02.062',-6.200,-5.400,-15.400,-12.900,-15.500,0.500
'0:02.063',-3.900,-4.500,-13.700,-12.000,-13.900,0.500
'0:02.064',0.100,-3.700,-11.800,-10.700,-12.500,0.500
'0:02.065',5.400,-3.000,-9.700,-9.100,-11.000,0.500
'0:02.066',11.300,-2.200,-7.700,-7.600,-9.500,0.500
'0:02.067',17.200,-1.400,-5.900,-6.400,-7.800,0.500
'0:02.068',22.600,-0.600,-4.800,-5.900,-6.300,0.500
'0:02.069',27.300,0.100,-4.400,-5.800,-5.000,0.500
'0:02.070',31.300,0.700,-4.600,-5.700,-3.900,0.500
'0:02.071',34.501,1.300,-4.700,-5.300,-3.000,0.500
'0:02.072',37.201,2.000,-4.500,-4.400,-2.200,0.500
'0:02.073',39.601,2.700,-4.000,-3.500,-1.400,0.500
'0:02.074',41.801,3.400,-3.400,-2.800,-0.600,0.500
'0:02.075',43.801,3.900,-3.300,-2.500,-0.200,0.500
'0:02.076',45.701,4.100,-3.700,-2.500,-0.100,0.500
'0:02.077',47.401,4.100,-4.700,-2.600,-0.600,0.500
'0:02.078',48.801,4.100,-5.900,-2.500,-1.400,0.500
'0:02.079',49.801,4.100,-6.800,-2.600,-2.500,0.500
'0:02.080',50.301,4.200,-7.400,-2.900,-3.400,0.500
'0:02.081',49.901,4.100,-7.500,-3.600,-3.800,0.500
'0:02.082',48.601,4.000,-7.400,-4.400,-3.500,0.500
'0:02.083',46.901,3.900,-7.100,-4.900,-2.600,0.500
'0:02.084',45.301,3.900,-6.500,-4.800,-1.300,0.500
'0:02.085',44.601,4.300,-5.900,-3.900,-0.300,0.500
'0:02.086',45.101,4.900,-5.200,-2.900,0.100,0.500
'0:02.087',46.201,5.600,-4.700,-2.300,-0.400,0.500
'0:02.088',46.901,5.900,-4.800,-2.500,-1.600,0.500
'0:02.089',46.201,5.900,-5.600,-3.400,-3.000,0.500
'0:02.090',44.401,5.400,-6.900,-4.500,-4.000,0.500
'0:02.091',42.401,4.700,-8.300,-5.100,-4.400,0.500
'0:02.092',41.901,4.100,-9.600,-4.900,-4.100,0.500
'0:02.093',43.301,3.600,-10.600,-3.800,-3.500,0.500
'0:02.094',46.101,3.400,-11.100,-2.300,-3.100,0.500
'0:02.095',48.401,3.400,-11.600,-0.900,-3.000,0.500
'0:02.096',48.901,3.500,-11.900,-0.100,-3.100,0.500
'0:02.097',47.201,3.800,-12.200,0.200,-3.300,0.500
'0:02.098',44.501,4.300,-12.100,-0.200,-3.300,0.500
'0:02.099',42.701,4.700,-11.800,-0.800,-3.000,0.500
'0:02.100',43.001,4.900,-11.200,-1.400,-2.300,0.500
'0:02.101',45.501,4.700,-10.900,-2.000,-1.600,0.500
'0:02.102',48.601,4.300,-11.100,-2.300,-1.000,0.500
'0:02.103',50.901,3.700,-11.800,-2.500,-0.700,0.500
'0:02.104',51.401,3.300,-12.700,-2.700,-0.800,0.500
'0:02.105',50.401,3.100,-13.400,-3.000,-1.200,0.500
'0:02.106',49.201,3.300,-13.300,-3.500,-1.900,0.500
'0:02.107',48.901,3.500,-12.500,-4.100,-2.700,0.500
'0:02.108',49.701,3.600,-11.400,-4.600,-3.200,0.500
'0:02.109',51.201,3.300,-10.700,-4.800,-3.300,0.500
'0:02.110',52.101,3.000,-10.700,-4.700,-2.800,0.500
'0:02.111',51.801,2.700,-11.500,-4.400,-1.900,0.500
'0:02.112',50.301,2.600,-12.600,-4.000,-0.900,0.500
'0:02.113',48.901,2.700,-13.300,-3.700,-0.200,0.500
'0:02.114',48.801,2.900,-13.300,-3.700,0.200,0.500
'0:02.115',50.901,2.800,-12.600,-3.600,0.100,0.500
'0:02.116',54.601,2.500,-11.700,-3.700,-0.200,0.500
'0:02.117',58.401,2.100,-11.000,-3.600,-0.700,0.500
'0:02.118',60.401,1.800,-10.700,-3.600,-1.200,0.500
'0:02.119',59.301,1.800,-10.700,-3.700,-1.700,0.500
'0:02.120',55.401,2.100,-10.900,-3.700,-2.200,0.500
'0:02.121',50.301,2.500,-10.800,-3.700,-2.600,0.500
'0:02.122',45.901,2.900,-10.500,-3.500,-2.600,0.500
'0:02.123',43.901,3.100,-9.900,-3.100,-2.300,0.500
'0:02.124',44.501,3.400,-9.300,-2.500,-1.800,0.500
'0:02.125',47.201,3.700,-8.700,-2.100,-1.400,0.500
'0:02.126',50.401,4.300,-8.200,-2.000,-1.100,0.500
'0:02.127',53.201,5.000,-7.900,-2.300,-1.200,0.500
'0:02.128',55.001,5.500,-7.700,-2.700,-1.400,0.500
'0:02.129',55.801,5.900,-7.600,-3.100,-1.400,0.500
'0:02.130',56.201,6.100,-7.700,-3.000,-1.000,0.500
'0:02.131',56.401,6.500,-7.700,-2.600,0.000,0.500
'0:02.132',56.801,7.100,-7.600,-1.800,1.300,0.500
'0:02.133',57.301,8.100,-7.200,-1.200,2.600,0.500
'0:02.134',57.801,9.200,-6.600,-1.000,3.400,0.500
'0:02.135',58.201,9.900,-6.100,-1.400,3.700,0.500
'0:02.136',58.301,10.100,-6.000,-2.200,3.500,0.500
'0:02.137',58.001,9.800,-6.400,-2.900,3.100,0.500
'0:02.138',57.101,9.400,-7.100,-3.200,2.700,0.500
'0:02.139',55.901,9.100,-7.900,-2.900,2.500,0.500
'0:02.140',54.601,9.300,-8.400,-2.000,2.500,0.500
'0:02.141',53.401,9.900,-8.400,-1.000,2.500,0.500
'0:02.142',52.601,10.600,-8.000,-0.100,2.600,0.500
'0:02.143',52.201,11.400,-7.400,0.900,2.900,0.500
'0:02.144',52.001,12.300,-6.700,2.100,3.600,0.500
'0:02.145',52.201,13.400,-5.700,3.900,5.000,0.500
'0:02.146',52.501,15.100,-4.400,6.200,7.200,0.500
'0:02.147',53.001,17.200,-2.500,8.800,10.000,0.500
'0:02.148',53.401,19.200,-0.100,11.400,13.000,0.500
'0:02.149',53.501,20.500,2.300,13.600,15.800,0.500
'0:02.150',53.101,20.700,4.200,15.600,17.900,0.500
'0:02.151',52.001,19.900,5.200,17.300,19.500,0.500
'0:02.152',50.401,18.300,5.100,18.900,20.700,0.500
'0:02.153',48.501,16.200,4.200,20.100,22.000,0.500
'0:02.154',46.701,13.800,2.900,20.800,23.700,0.500
'0:02.155',45.301,11.000,1.900,20.800,26.100,0.500
'0:02.156',44.501,7.600,1.400,20.500,29.100,0.500
'0:02.157',44.301,3.500,1.500,20.100,32.200,0.500
'0:02.158',44.801,-1.100,1.900,19.900,35.201,0.500
'0:02.159',45.901,-6.000,2.300,20.000,37.701,0.500
'0:02.160',47.601,-11.100,2.000,20.100,39.501,0.500
'0:02.161',49.501,-16.400,0.800,19.700,40.801,0.500
'0:02.162',51.101,-22.100,-1.500,18.500,41.701,0.500
'0:02.163',52.001,-28.200,-4.400,16.900,42.601,0.500
'0:02.164',52.001,-34.301,-7.500,15.100,43.501,0.500
'0:02.165',51.301,-40.001,-10.200,13.600,44.301,0.500
'0:02.166',50.101,-44.701,-12.100,12.100,44.801,0.500
'0:02.167',49.001,-48.601,-13.400,10.500,44.501,0.500
'0:02.168',48.201,-52.001,-14.300,8.200,43.401,0.500
'0:02.169',47.701,-55.401,-15.300,5.300,41.501,0.500
'0:02.170',47.501,-59.001,-16.800,1.900,39.101,0.500
'0:02.171',47.601,-62.801,-18.700,-1.200,36.901,0.500
'0:02.172',47.901,-66.001,-20.600,-3.300,35.001,0.500
'0:02.173',48.401,-67.901,-22.200,-4.100,33.801,0.500
'0:02.174',49.101,-68.201,-22.900,-3.600,33.401,0.500
'0:02.175',49.601,-67.001,-22.600,-2.000,33.601,0.500
'0:02.176',49.501,-64.701,-21.500,-0.100,34.001,0.500
'0:02.177',48.701,-61.901,-20.100,1.500,34.101,0.500
'0:02.178',47.501,-58.901,-18.800,2.200,33.301,0.500
'0:02.179',46.601,-55.801,-17.900,1.800,31.000,0.500
'0:02.180',46.601,-52.301,-17.600,0.300,27.000,0.500
'0:02.181',47.901,-48.201,-17.800,-1.700,21.700,0.500
'0:02.182',50.301,-43.401,-18.300,-3.700,15.700,0.500
'0:02.183',53.001,-38.001,-18.600,-5.200,9.800,0.500
'0:02.184',55.201,-32.300,-18.600,-6.100,4.500,0.500
'0:02.185',56.401,-26.700,-18.300,-6.700,0.100,0.500
'0:02.186',56.701,-21.500,-17.700,-7.200,-3.600,0.500
'0:02.187',56.501,-17.000,-17.300,-8.200,-6.800,0.500
'0:02.188',56.801,-13.300,-16.900,-9.700,-9.400,0.500
'0:02.189',58.201,-10.600,-16.700,-11.400,-11.300,0.500
'0:02.190',60.501,-8.800,-16.300,-12.800,-12.400,0.500
'0:02.191',63.201,-7.500,-15.600,-13.600,-12.600,0.500
'0:02.192',65.201,-6.300,-14.500,-13.900,-12.300,0.500
'0:02.193',65.801,-5.100,-13.200,-13.800,-12.200,0.500
'0:02.194',64.801,-3.600,-12.200,-13.900,-12.600,0.500
'0:02.195',62.901,-2.200,-11.900,-14.400,-13.700,0.500
'0:02.196',60.801,-0.900,-12.600,-15.300,-15.400,0.500
'0:02.197',59.401,-0.200,-14.100,-16.600,-17.000,0.500
'0:02.198',58.901,0.000,-15.900,-17.600,-18.400,0.500
'0:02.199',59.101,-0.300,-17.400,-18.100,-19.400,0.500
'0:02.200',59.601,-0.700,-18.600,-17.800,-20.100,0.500
'0:02.201',60.101,-1.100,-19.300,-17.000,-20.600,0.500
'0:02.202',60.501,-1.300,-19.800,-16.000,-21.200,0.500
'0:02.203',61.201,-1.300,-20.000,-15.300,-21.700,0.500
'0:02.204',62.201,-1.200,-19.800,-15.200,-22.000,0.500
'0:02.205',63.801,-1.100,-19.100,-15.400,-21.800,0.500
'0:02.206',65.401,-1.100,-17.900,-15.800,-20.900,0.500
'0:02.207',66.501,-1.100,-16.400,-15.800,-19.600,0.500
'0:02.208',66.501,-1.200,-15.300,-15.200,-18.100,0.500
'0:02.209',65.101,-1.200,-14.800,-14.200,-16.700,0.500
'0:02.210',62.401,-1.100,-15.100,-12.900,-15.400,0.500
'0:02.211',59.401,-0.800,-15.500,-11.500,-14.100,0.500
'0:02.212',57.201,-0.300,-15.400,-10.100,-12.800,0.500
'0:02.213',56.601,0.500,-14.500,-8.700,-11.300,0.500
'0:02.214',57.801,1.200,-12.800,-7.200,-9.700,0.500
'0:02.215',60.101,1.600,-11.100,-5.700,-8.100,0.500
'0:02.216',62.501,1.600,-9.900,-4.400,-6.900,0.500
'0:02.217',64.001,1.100,-9.800,-3.500,-5.900,0.500
'0:02.218',64.601,0.500,-10.300,-2.900,-5.200,0.500
'0:02.219',64.701,0.200,-10.800,-2.500,-4.400,0.500
'0:02.220',65.001,0.700,-10.700,-2.200,-3.400,0.500
'0:02.221',65.501,2.000,-9.500,-1.700,-2.100,0.500
'0:02.222',65.701,3.800,-7.600,-1.200,-0.600,0.500
'0:02.223',64.501,5.500,-5.500,-0.800,0.900,0.500
'0:02.224',61.501,6.700,-3.700,-0.400,2.000,0.500
'0:02.225',57.601,7.300,-2.500,0.100,2.600,0.500
'0:02.226',54.301,7.300,-1.800,0.700,2.800,0.500
'0:02.227',53.301,7.300,-1.300,1.500,2.500,0.500
'0:02.228',55.601,7.400,-0.700,2.300,2.200,0.500
'0:02.229',60.201,7.500,-0.200,2.800,1.800,0.500
'0:02.230',65.001,7.200,0.000,2.600,1.800,0.500
'0:02.231',68.001,6.400,-0.400,1.900,1.900,0.500
'0:02.232',68.101,5.200,-1.300,0.800,2.000,0.500
'0:02.233',65.601,3.900,-2.600,-0.200,1.900,0.500
'0:02.234',62.301,3.000,-3.900,-0.700,1.500,0.500
'0:02.235',60.101,2.700,-4.700,-0.800,0.600,0.500
'0:02.236',60.001,2.700,-5.000,-0.600,-0.400,0.500
'0:02.237',61.601,2.500,-4.700,-0.600,-1.400,0.500
'0:02.238',63.801,1.800,-4.200,-1.000,-2.100,0.500
'0:02.239',65.101,0.500,-3.800,-1.600,-2.400,0.500
'0:02.240',64.801,-0.700,-3.700,-2.100,-2.400,0.500
'0:02.241',63.101,-1.500,-4.100,-2.100,-2.200,0.500
'0:02.242',61.201,-1.500,-4.700,-1.800,-1.800,0.500
'0:02.243',60.201,-0.800,-5.500,-1.500,-1.400,0.500
'0:02.244',60.901,0.100,-6.100,-1.500,-0.800,0.500
'0:02.245',63.001,0.700,-6.300,-1.900,-0.100,0.500
'0:02.246',65.401,0.800,-6.100,-2.400,0.600,0.500
'0:02.247',67.201,0.600,-5.700,-2.600,1.000,0.500
'0:02.248',67.401,0.300,-5.500,-2.300,1.100,0.500
'0:02.249',65.901,0.000,-5.800,-1.600,0.700,0.500
'0:02.250',63.501,-0.500,-6.400,-1.000,0.200,0.500
'0:02.251',60.901,-1.400,-7.100,-1.000,-0.300,0.500
'0:02.252',59.101,-2.600,-7.300,-1.500,-0.500,0.500
'0:02.253',58.401,-3.800,-6.600,-2.300,-0.200,0.500
'0:02.254',58.801,-4.400,-5.000,-2.800,0.300,0.500
'0:02.255',59.701,-4.000,-3.000,-2.600,0.800,0.500
'0:02.256',60.501,-2.700,-1.100,-1.700,1.000,0.500
'0:02.257',60.901,-0.900,0.300,-0.500,0.900,0.500
'0:02.258',61.101,0.500,0.900,0.600,0.700,0.500
'0:02.259',61.501,1.100,1.000,1.100,0.500,0.500
'0:02.260',62.201,0.800,0.800,1.200,0.500,0.500
'0:02.261',63.301,0.100,0.400,1.100,0.600,0.500
'0:02.262',64.401,-0.500,0.100,1.200,0.800,0.500
'0:02.263',65.401,-0.500,-0.100,1.800,1.100,0.500
'0:02.264',66.401,0.200,-0.200,2.800,1.200,0.500
'0:02.265',67.701,1.300,-0.100,3.700,1.300,0.500
'0:02.266',69.401,2.200,0.100,4.200,1.000,0.500
'0:02.267',71.201,2.600,0.100,4.000,0.400,0.500
'0:02.268',72.201,2.100,-0.100,3.200,-0.400,0.500
'0:02.269',71.501,1.000,-0.600,2.000,-1.300,0.500
'0:02.270',68.801,-0.400,-1.100,0.600,-2.200,0.500
'0:02.271',64.901,-1.700,-1.200,-0.600,-2.900,0.500
'0:02.272',61.501,-2.600,-0.700,-1.500,-3.200,0.500
'0:02.273',60.101,-3.100,0.400,-2.100,-3.200,0.500
'0:02.274',61.201,-3.300,1.500,-2.200,-2.900,0.500
'0:02.275',64.301,-3.400,2.300,-2.000,-2.600,0.500
'0:02.276',67.701,-3.400,2.400,-1.600,-2.200,0.500
'0:02.277',70.101,-3.400,1.900,-1.100,-1.800,0.500
'0:02.278',71.001,-3.300,1.300,-0.600,-1.400,0.500
'0:02.279',70.801,-3.100,1.000,0.000,-1.100,0.500
'0:02.280',70.501,-2.600,0.900,0.500,-0.900,0.500
'0:02.281',70.701,-1.900,0.900,1.000,-0.600,0.500
'0:02.282',71.501,-1.400,0.600,1.500,-0.300,0.500
'0:02.283',72.201,-1.100,-0.200,1.900,0.100,0.500
'0:02.284',72.501,-1.200,-1.200,2.300,0.300,0.500
'0:02.285',72.201,-1.600,-2.000,2.300,0.300,0.500
'0:02.286',71.701,-2.100,-2.200,2.100,0.100,0.500
'0:02.287',71.301,-2.500,-1.800,1.700,-0.200,0.500
'0:02.288',71.201,-2.600,-1.200,1.000,-0.400,0.500
'0:02.289',71.201,-2.400,-1.200,0.500,-0.400,0.500
'0:02.290',70.801,-2.200,-1.900,0.100,-0.200,0.500
'0:02.291',70.401,-2.100,-3.400,0.000,0.300,0.500
'0:02.292',70.101,-2.300,-4.900,0.300,0.800,0.500
'0:02.293',70.401,-2.500,-5.600,0.900,1.300,0.500
'0:02.294',71.201,-2.500,-5.100,1.700,1.600,0.500
'0:02.295',72.201,-2.000,-3.700,2.400,1.700,0.500
'0:02.296',72.901,-1.500,-2.200,2.700,1.600,0.500
'0:02.297',73.001,-1.100,-1.300,2.600,1.400,0.500
'0:02.298',72.601,-1.300,-1.400,1.800,1.200,0.500
'0:02.299',72.401,-2.000,-2.100,0.800,1.100,0.500
'0:02.300',72.501,-3.000,-2.900,-0.300,1.300,0.500
'0:02.301',73.201,-3.700,-3.100,-1.100,1.600,0.500
'0:02.302',73.901,-3.700,-2.700,-1.600,1.900,0.500
'0:02.303',74.301,-3.300,-2.200,-1.700,1.900,0.500
'0:02.304',74.101,-2.900,-2.100,-1.800,1.500,0.500
'0:02.305',73.101,-3.100,-2.700,-1.900,0.900,0.500
'0:02.306',71.601,-3.700,-3.600,-2.000,0.300,0.500
'0:02.307',69.701,-4.500,-4.500,-1.800,0.200,0.500
'0:02.308',68.001,-4.600,-4.500,-1.200,0.800,0.500
'0:02.309',67.101,-4.000,-3.700,-0.200,2.000,0.500
'0:02.310',67.701,-2.600,-2.100,0.900,3.300,0.500
'0:02.311',69.701,-1.200,-0.300,1.600,4.200,0.500
'0:02.312',72.401,-0.400,1.100,1.700,4.500,0.500
'0:02.313',74.601,-0.500,1.900,1.300,4.200,0.500
'0:02.314',74.901,-1.300,1.900,0.600,3.600,0.500
'0:02.315',73.201,-2.300,1.500,-0.100,3.000,0.500
'0:02.316',70.701,-3.000,0.800,-0.700,2.700,0.500
'0:02.317',69.101,-3.300,0.000,-1.100,2.500,0.500
'0:02.318',69.901,-3.500,-0.700,-1.600,2.300,0.500
'0:02.319',73.101,-3.800,-1.300,-2.100,1.800,0.500
'0:02.320',76.901,-4.400,-1.700,-2.500,1.200,0.500
'0:02.321',79.101,-5.200,-1.800,-2.500,0.800,0.500
'0:02.322',78.501,-5.900,-1.800,-2.000,0.900,0.500
'0:02.323',75.501,-6.300,-1.600,-1.100,1.600,0.500
'0:02.324',72.101,-6.300,-1.300,0.000,2.700,0.500
'0:02.325',70.401,-6.200,-1.100,1.000,3.900,0.500
'0:02.326',71.201,-6.000,-1.000,1.600,4.700,0.500
'0:02.327',73.801,-5.800,-1.100,2.000,5.000,0.500
'0:02.328',76.401,-5.300,-1.300,2.100,4.900,0.500
'0:02.329',77.401,-4.600,-1.400,2.300,4.800,0.500
'0:02.330',76.601,-3.800,-1.400,2.400,5.000,0.500
'0:02.331',74.701,-3.000,-1.300,2.600,5.700,0.500
'0:02.332',73.001,-2.600,-1.100,2.600,7.000,0.500
'0:02.333',72.501,-2.600,-0.700,2.700,8.600,0.500
'0:02.334',73.301,-2.600,-0.300,2.700,10.200,0.500
'0:02.335',74.901,-2.500,0.200,2.800,11.400,0.500
'0:02.336',76.701,-2.200,0.500,2.700,12.000,0.500
'0:02.337',78.101,-2.000,0.400,2.400,11.700,0.500
'0:02.338',78.701,-2.300,-0.300,1.700,10.900,0.500
'0:02.339',78.201,-3.500,-1.700,0.800,9.900,0.500
'0:02.340',76.401,-5.400,-3.300,0.000,9.300,0.500
'0:02.341',73.701,-7.500,-4.500,-0.300,9.300,0.500
'0:02.342',70.701,-8.800,-4.900,0.000,9.700,0.500
'0:02.343',68.601,-9.100,-4.300,0.700,10.100,0.500
'0:02.344',68.201,-8.300,-3.400,1.300,10.200,0.500
'0:02.345',69.801,-7.300,-2.700,1.400,9.700,0.500
'0:02.346',72.701,-6.700,-3.000,0.700,8.700,0.500
'0:02.347',75.601,-7.000,-4.300,-0.400,7.500,0.500
'0:02.348',77.601,-8.100,-5.900,-1.500,6.400,0.500
'0:02.349',78.201,-9.500,-7.100,-2.100,5.700,0.500
'0:02.350',77.901,-10.600,-7.400,-2.100,5.300,0.500
'0:02.351',77.201,-11.300,-6.800,-1.800,5.000,0.500
'0:02.352',76.801,-11.800,-5.700,-1.400,4.800,0.500
'0:02.353',76.601,-12.200,-4.700,-1.300,4.700,0.500
'0:02.354',76.701,-12.700,-4.200,-1.500,4.800,0.500
'0:02.355',76.901,-13.400,-4.100,-1.600,5.200,0.500
'0:02.356',77.401,-14.100,-4.200,-1.500,5.800,0.500
'0:02.357',78.201,-14.700,-4.400,-1.200,6.500,0.500
'0:02.358',79.201,-15.200,-4.500,-0.600,7.200,0.500
'0:02.359',79.901,-15.800,-4.700,0.100,8.000,0.500
